winSize, paaSize, aSize, approximationDistance, minObservedCoverage, maxObservedCoverage, meanCoverage, numZeroRuns, maxZeroRunLength, grammarSize, zeroCoverageLength, r1, r2, r3, r4, r5 
30, 3, 3, 12.503846264300382, 1, 13, 4.0, 0, 0, 196, 0, 0, 1, 0, 0, 0
30, 3, 4, 12.500501497948909, 0, 14, 5.0, 1, 43, 238, 43, 0, 1, 0, 1, 0
30, 3, 5, 12.365762948698032, 0, 13, 5.0, 1, 7, 323, 7, 0, 1, 0, 1, 0
30, 3, 6, 12.198591418040328, 0, 17, 6.0, 1, 15, 358, 15, 0, 1, 0, 1, 0
30, 3, 7, 12.113711856098124, 1, 18, 7.0, 0, 0, 494, 0, 0, 1, 0, 0, 0
30, 3, 8, 12.116899452929923, 1, 17, 6.0, 0, 0, 483, 0, 0, 1, 0, 0, 0
30, 3, 9, 11.920947528030151, 0, 15, 6.0, 2, 28, 537, 49, 0, 1, 0, 1, 0
30, 3, 10, 11.943381527662675, 0, 19, 7.0, 4, 45, 571, 111, 0, 1, 0, 1, 0
30, 3, 11, 12.120270647470496, 0, 16, 6.0, 1, 14, 560, 14, 0, 1, 0, 1, 0
30, 4, 3, 9.665486171145671, 1, 16, 6.0, 0, 0, 212, 0, 0, 1, 0, 0, 0
30, 4, 4, 9.804382817594648, 0, 12, 5.0, 3, 22, 371, 39, 0, 1, 0, 1, 0
30, 4, 5, 10.056444592342116, 0, 19, 6.0, 3, 45, 452, 85, 0, 1, 0, 1, 0
30, 4, 6, 9.647253435708851, 0, 16, 6.0, 2, 21, 508, 37, 0, 1, 0, 1, 0
30, 4, 7, 9.497356200622045, 1, 20, 8.0, 0, 0, 624, 0, 0, 1, 0, 0, 0
30, 4, 8, 9.603454515099795, 0, 15, 6.0, 4, 50, 709, 133, 0, 1, 0, 1, 0
30, 4, 9, 9.443433717198428, 0, 19, 7.0, 5, 52, 710, 152, 0, 1, 0, 1, 0
30, 4, 10, 9.51787219841284, 0, 16, 7.0, 3, 46, 844, 84, 0, 1, 0, 1, 0
30, 4, 11, 9.258935450405826, 0, 19, 7.0, 1, 22, 894, 22, 0, 1, 0, 1, 0
30, 5, 3, 7.421900910701312, 0, 14, 5.0, 1, 7, 317, 7, 0, 1, 0, 1, 0
30, 5, 4, 7.445447625070451, 0, 20, 6.0, 1, 10, 456, 10, 0, 1, 0, 1, 0
30, 5, 5, 7.289139273826479, 0, 21, 7.0, 4, 16, 618, 45, 0, 1, 0, 1, 0
30, 5, 6, 7.281094662072559, 0, 26, 8.0, 1, 16, 664, 16, 0, 1, 0, 1, 0
30, 5, 7, 7.260456722223245, 0, 20, 7.0, 1, 9, 804, 9, 0, 1, 0, 1, 0
30, 5, 8, 7.172795050566415, 0, 19, 7.0, 2, 15, 861, 25, 0, 1, 0, 1, 0
30, 5, 9, 7.080632273622862, 0, 18, 7.0, 4, 22, 942, 76, 0, 1, 0, 1, 0
30, 5, 10, 7.034806809938907, 0, 18, 7.0, 3, 50, 1022, 114, 0, 1, 0, 1, 0
30, 5, 11, 7.051355403697446, 0, 19, 7.0, 6, 54, 1060, 167, 1, 1, 1, 1, 0
30, 6, 3, 6.182734962027721, 0, 16, 6.0, 1, 16, 376, 16, 0, 1, 0, 1, 0
30, 6, 4, 6.211688515984397, 0, 22, 7.0, 2, 46, 585, 69, 0, 1, 0, 1, 0
30, 6, 5, 6.030685809085304, 0, 17, 6.0, 2, 45, 669, 61, 0, 1, 0, 1, 0
30, 6, 6, 5.923655831563587, 0, 19, 8.0, 2, 52, 891, 98, 0, 1, 0, 1, 0
30, 6, 7, 5.954185298245176, 0, 18, 6.0, 6, 50, 923, 128, 0, 1, 0, 1, 0
30, 6, 8, 5.9090858801214825, 0, 22, 6.0, 4, 47, 933, 97, 0, 1, 0, 1, 0
30, 6, 9, 5.893889340079337, 0, 19, 6.0, 5, 22, 1016, 99, 0, 1, 0, 1, 0
30, 6, 10, 5.7954223699793355, 0, 19, 7.0, 5, 51, 1131, 128, 1, 1, 1, 1, 0
30, 6, 11, 5.778318736914865, 0, 17, 6.0, 5, 51, 1222, 175, 0, 1, 0, 1, 0
30, 7, 3, 6.399033616890295, 0, 20, 6.0, 1, 20, 438, 20, 0, 1, 0, 1, 0
30, 7, 4, 6.433366698212269, 0, 19, 6.0, 2, 15, 725, 24, 0, 1, 0, 1, 0
30, 7, 5, 6.353368094984234, 0, 19, 6.0, 5, 48, 745, 127, 0, 1, 0, 1, 0
30, 7, 6, 6.177528218215069, 0, 20, 7.0, 6, 50, 933, 176, 0, 1, 0, 1, 0
30, 7, 7, 6.143997403544482, 0, 18, 6.0, 2, 15, 1023, 26, 0, 1, 0, 1, 0
30, 7, 8, 6.10719374410563, 0, 14, 6.0, 6, 23, 1071, 109, 0, 1, 0, 1, 0
30, 7, 9, 6.089379533768379, 0, 18, 7.0, 7, 47, 1132, 158, 0, 1, 0, 1, 0
30, 7, 10, 6.087280105010108, 0, 16, 6.0, 8, 50, 1210, 179, 1, 1, 1, 1, 0
30, 7, 11, 6.05279802362103, 0, 17, 6.0, 6, 54, 1271, 200, 1, 1, 1, 1, 0
30, 8, 3, 12.778921749011142, 0, 19, 7.0, 2, 16, 484, 28, 0, 1, 0, 1, 0
30, 8, 4, 12.530918202310417, 0, 17, 6.0, 5, 48, 746, 153, 0, 1, 0, 1, 0
30, 8, 5, 12.279995649565524, 0, 18, 7.0, 7, 46, 884, 175, 0, 1, 0, 1, 0
30, 8, 6, 12.097439394047518, 0, 21, 7.0, 2, 49, 978, 73, 0, 1, 0, 1, 0
30, 8, 7, 11.994525458542915, 0, 20, 7.0, 7, 51, 1142, 131, 0, 1, 0, 1, 0
30, 8, 8, 11.919565121789983, 0, 16, 6.0, 5, 51, 1192, 97, 0, 1, 0, 1, 0
30, 8, 9, 11.816229622169729, 0, 17, 5.0, 8, 54, 1238, 250, 0, 1, 0, 1, 0
30, 8, 10, 11.811279841086709, 0, 15, 5.0, 11, 88, 1257, 384, 1, 1, 1, 1, 0
30, 8, 11, 11.771874718270384, 0, 16, 5.0, 10, 56, 1254, 257, 1, 1, 1, 1, 0
30, 9, 3, 7.214153475752156, 0, 19, 6.0, 1, 16, 579, 16, 0, 1, 0, 1, 0
30, 9, 4, 7.190368823689187, 0, 16, 6.0, 1, 47, 790, 47, 0, 1, 0, 1, 0
30, 9, 5, 7.049486045531205, 0, 18, 6.0, 4, 53, 967, 139, 0, 1, 0, 1, 0
30, 9, 6, 6.9536898866901025, 0, 19, 7.0, 2, 50, 1106, 59, 0, 1, 0, 1, 0
30, 9, 7, 6.877216643319435, 0, 17, 6.0, 6, 51, 1120, 198, 1, 1, 1, 1, 0
30, 9, 8, 6.834655295657786, 0, 20, 6.0, 8, 51, 1241, 209, 0, 1, 0, 1, 0
30, 9, 9, 6.836606957486473, 0, 16, 5.0, 14, 27, 1265, 253, 1, 1, 1, 1, 0
30, 9, 10, 6.7891222503103394, 0, 15, 4.0, 9, 54, 1355, 333, 0, 1, 0, 1, 0
30, 9, 11, 6.753004444981818, 0, 17, 4.0, 9, 85, 1361, 321, 1, 1, 1, 1, 0
30, 10, 3, 3.5184470100662213, 0, 15, 6.0, 2, 16, 624, 25, 0, 1, 0, 1, 0
30, 10, 4, 3.4700816203890996, 0, 17, 6.0, 4, 32, 900, 62, 0, 1, 0, 1, 0
30, 10, 5, 3.4526389298670788, 0, 18, 6.0, 4, 46, 973, 115, 0, 1, 0, 1, 0
30, 10, 6, 3.3771517098359993, 0, 19, 5.0, 6, 53, 1180, 170, 0, 1, 0, 1, 0
30, 10, 7, 3.3173112273857717, 0, 17, 6.0, 7, 50, 1257, 204, 0, 1, 0, 1, 0
30, 10, 8, 3.3206815632211395, 0, 15, 5.0, 7, 27, 1294, 139, 0, 1, 0, 1, 0
30, 10, 9, 3.2894886399741474, 0, 15, 4.0, 10, 50, 1334, 305, 1, 1, 1, 1, 0
30, 10, 10, 3.289764529136824, 0, 16, 4.0, 13, 56, 1382, 285, 1, 1, 1, 1, 0
30, 10, 11, 3.2741325520375706, 0, 13, 3.0, 13, 86, 1417, 423, 1, 1, 1, 1, 0
30, 11, 3, 16.066924011792075, 0, 21, 6.0, 2, 46, 729, 63, 0, 1, 0, 1, 0
30, 11, 4, 15.867281550988695, 0, 18, 6.0, 3, 23, 903, 51, 0, 1, 0, 1, 0
30, 11, 5, 15.55332023340518, 0, 17, 6.0, 3, 47, 1059, 90, 0, 1, 0, 1, 0
30, 11, 6, 15.540422146818143, 0, 19, 5.0, 3, 51, 1172, 86, 0, 1, 0, 1, 0
30, 11, 7, 15.36587779948395, 0, 15, 5.0, 6, 53, 1271, 145, 1, 1, 1, 1, 0
30, 11, 8, 15.288888511961353, 0, 14, 5.0, 7, 27, 1283, 132, 0, 1, 0, 1, 0
30, 11, 9, 15.230765352366346, 0, 18, 4.0, 11, 49, 1348, 316, 0, 1, 0, 1, 0
30, 11, 10, 15.172955110476897, 0, 17, 4.0, 9, 52, 1389, 245, 0, 1, 0, 1, 0
30, 11, 11, 15.141313585920908, 0, 14, 3.0, 13, 92, 1426, 421, 1, 1, 1, 1, 0
30, 12, 3, 12.638504863216955, 0, 19, 7.0, 4, 49, 765, 114, 0, 1, 0, 1, 0
30, 12, 4, 12.271467283291829, 0, 16, 6.0, 6, 24, 994, 113, 0, 1, 0, 1, 0
30, 12, 5, 12.146327046303234, 0, 15, 6.0, 4, 50, 1125, 112, 0, 1, 0, 1, 0
30, 12, 6, 12.112834926398595, 0, 19, 6.0, 5, 50, 1221, 114, 1, 1, 1, 1, 0
30, 12, 7, 11.952575159488653, 0, 15, 5.0, 6, 50, 1307, 172, 0, 1, 0, 1, 0
30, 12, 8, 11.896890069897397, 0, 13, 4.0, 11, 58, 1368, 351, 0, 1, 0, 1, 0
30, 12, 9, 11.852016043564468, 0, 17, 4.0, 12, 55, 1346, 333, 1, 1, 1, 1, 0
30, 12, 10, 11.849125699065327, 0, 13, 4.0, 10, 84, 1403, 387, 1, 1, 1, 1, 0
30, 12, 11, 11.816507591993643, 0, 14, 3.0, 12, 55, 1423, 417, 1, 1, 1, 1, 0
30, 13, 3, 8.885846141020787, 0, 17, 6.0, 4, 47, 794, 102, 0, 1, 0, 1, 0
30, 13, 4, 8.635352855224713, 0, 16, 6.0, 5, 47, 1033, 96, 0, 1, 0, 1, 0
30, 13, 5, 8.494800753657398, 0, 18, 6.0, 5, 48, 1161, 145, 0, 1, 0, 1, 0
30, 13, 6, 8.42343995256078, 0, 17, 5.0, 7, 50, 1270, 163, 1, 1, 1, 1, 0
30, 13, 7, 8.437054730101485, 0, 17, 4.0, 2, 51, 1304, 89, 0, 1, 0, 1, 0
30, 13, 8, 8.327212845435396, 0, 12, 4.0, 7, 52, 1377, 186, 0, 1, 0, 1, 0
30, 13, 9, 8.273090568156187, 0, 16, 4.0, 16, 55, 1426, 428, 0, 1, 0, 1, 0
30, 13, 10, 8.258953684564812, 0, 13, 3.0, 15, 56, 1465, 477, 1, 1, 1, 1, 0
30, 13, 11, 8.242412515536055, 0, 14, 3.0, 10, 87, 1474, 343, 1, 1, 1, 1, 0
30, 14, 3, 4.886833627823688, 0, 17, 6.0, 3, 21, 823, 46, 0, 1, 0, 1, 0
30, 14, 4, 4.814752007727298, 0, 13, 5.0, 7, 24, 1092, 98, 0, 1, 0, 1, 0
30, 14, 5, 4.74919452842819, 0, 17, 5.0, 7, 47, 1209, 192, 0, 1, 0, 1, 0
30, 14, 6, 4.69431804709375, 0, 16, 5.0, 6, 55, 1314, 187, 0, 1, 0, 1, 0
30, 14, 7, 4.683582664271567, 0, 14, 4.0, 7, 85, 1298, 209, 0, 1, 0, 1, 0
30, 14, 8, 4.668901477799875, 0, 13, 4.0, 13, 52, 1366, 363, 1, 1, 1, 1, 0
30, 14, 9, 4.616027222366968, 0, 15, 3.0, 12, 84, 1412, 408, 1, 1, 1, 1, 0
30, 14, 10, 4.6142649117787125, 0, 13, 3.0, 16, 86, 1460, 587, 1, 1, 1, 1, 0
30, 14, 11, 4.598769190393729, 0, 12, 3.0, 14, 81, 1487, 491, 0, 1, 0, 1, 0
30, 15, 3, 2.431321112469268, 0, 17, 6.0, 3, 16, 873, 40, 0, 1, 0, 1, 0
30, 15, 4, 2.3979115715188657, 0, 16, 5.0, 9, 56, 1080, 202, 1, 1, 1, 1, 0
30, 15, 5, 2.338280403331611, 0, 15, 5.0, 9, 55, 1221, 272, 1, 1, 1, 1, 0
30, 15, 6, 2.327785664828036, 0, 15, 4.0, 8, 53, 1327, 219, 1, 1, 1, 1, 0
30, 15, 7, 2.3233045044377283, 0, 13, 3.0, 10, 78, 1350, 390, 0, 1, 0, 1, 0
30, 15, 8, 2.3206885605071985, 0, 12, 3.0, 12, 87, 1365, 394, 1, 1, 1, 1, 0
30, 15, 9, 2.2974801279739916, 0, 12, 3.0, 13, 92, 1451, 529, 1, 1, 1, 1, 0
30, 15, 10, 2.28698815540335, 0, 10, 2.0, 14, 117, 1487, 552, 1, 1, 1, 1, 0
30, 15, 11, 2.285660589687525, 0, 11, 2.0, 15, 95, 1484, 583, 1, 1, 1, 1, 0
30, 16, 3, 25.909810411722788, 0, 21, 6.0, 3, 49, 943, 122, 0, 1, 0, 1, 0
30, 16, 4, 25.05781197754255, 0, 19, 5.0, 5, 50, 1165, 148, 0, 1, 0, 1, 0
30, 16, 5, 25.087266288936217, 0, 15, 5.0, 10, 53, 1277, 268, 0, 1, 0, 1, 0
30, 16, 6, 24.890692659387916, 0, 14, 4.0, 8, 53, 1344, 231, 0, 1, 0, 1, 0
30, 16, 7, 24.79589982453906, 0, 17, 4.0, 12, 58, 1414, 383, 0, 1, 0, 1, 0
30, 16, 8, 24.819309324769996, 0, 13, 3.0, 7, 54, 1385, 272, 1, 1, 1, 1, 0
30, 16, 9, 24.846707643909454, 0, 16, 3.0, 16, 54, 1426, 477, 1, 1, 1, 1, 0
30, 16, 10, 24.69732326978065, 0, 11, 2.0, 17, 89, 1501, 652, 1, 1, 1, 1, 0
30, 16, 11, 24.619580755122765, 0, 11, 2.0, 16, 94, 1530, 517, 1, 1, 1, 1, 0
30, 17, 3, 24.5689178655475, 0, 18, 6.0, 6, 49, 969, 158, 0, 1, 0, 1, 0
30, 17, 4, 23.83177118021219, 0, 16, 6.0, 7, 26, 1197, 137, 0, 1, 0, 1, 0
30, 17, 5, 23.624328551801998, 0, 18, 5.0, 9, 53, 1275, 242, 1, 1, 1, 1, 0
30, 17, 6, 23.515955529584307, 0, 15, 4.0, 6, 56, 1385, 179, 0, 1, 0, 1, 0
30, 17, 7, 23.4949995244766, 0, 13, 3.0, 11, 51, 1413, 341, 1, 1, 1, 1, 0
30, 17, 8, 23.480644227612267, 0, 14, 3.0, 12, 64, 1432, 407, 1, 1, 1, 1, 0
30, 17, 9, 23.46926711070636, 0, 17, 2.0, 16, 84, 1456, 560, 0, 1, 0, 1, 0
30, 17, 10, 23.3857484319776, 0, 13, 2.0, 16, 89, 1500, 599, 1, 1, 1, 1, 0
30, 17, 11, 23.3170493482158, 0, 13, 2.0, 16, 91, 1523, 797, 1, 1, 1, 1, 0
30, 18, 3, 23.102420891697626, 0, 20, 7.0, 5, 47, 992, 87, 0, 1, 0, 1, 0
30, 18, 4, 22.371598494004818, 0, 17, 5.0, 11, 54, 1199, 327, 1, 1, 1, 1, 0
30, 18, 5, 22.2525824172292, 0, 13, 4.0, 10, 54, 1335, 304, 0, 1, 0, 1, 0
30, 18, 6, 22.122847714062928, 0, 19, 4.0, 12, 54, 1382, 307, 0, 1, 0, 1, 0
30, 18, 7, 22.083526520271068, 0, 13, 3.0, 11, 54, 1436, 273, 0, 1, 0, 1, 0
30, 18, 8, 22.0781131858039, 0, 13, 2.0, 15, 54, 1447, 466, 1, 1, 1, 1, 0
30, 18, 9, 22.056368788136904, 0, 11, 2.0, 14, 83, 1445, 554, 0, 1, 0, 1, 0
30, 18, 10, 22.058214432078387, 0, 9, 2.0, 18, 86, 1491, 662, 1, 1, 1, 1, 0
30, 18, 11, 21.923014530903515, 0, 13, 1.0, 18, 88, 1516, 706, 1, 1, 1, 1, 0
30, 19, 3, 21.46437446566803, 0, 17, 7.0, 3, 46, 1044, 78, 0, 1, 0, 1, 0
30, 19, 4, 20.835629992793255, 0, 14, 5.0, 12, 84, 1225, 298, 0, 1, 0, 1, 0
30, 19, 5, 20.764132679213002, 0, 14, 4.0, 11, 55, 1328, 297, 0, 1, 0, 1, 0
30, 19, 6, 20.645747559059508, 0, 13, 4.0, 9, 59, 1410, 243, 1, 1, 1, 1, 0
30, 19, 7, 20.605398106318336, 0, 15, 3.0, 9, 59, 1479, 268, 0, 1, 0, 1, 0
30, 19, 8, 20.507679339557672, 0, 12, 2.0, 16, 91, 1481, 661, 1, 1, 1, 1, 0
30, 19, 9, 20.523841935397744, 0, 12, 2.0, 15, 89, 1469, 706, 1, 1, 1, 1, 0
30, 19, 10, 20.550698827015225, 0, 9, 2.0, 16, 82, 1468, 713, 1, 1, 1, 1, 0
30, 19, 11, 20.481326022259886, 0, 8, 1.0, 17, 89, 1499, 888, 1, 1, 1, 1, 0
35, 3, 3, 15.812800592406841, 0, 11, 5.0, 1, 11, 150, 11, 0, 1, 0, 1, 0
35, 3, 4, 15.820415962286514, 0, 13, 6.0, 1, 11, 195, 11, 0, 1, 0, 1, 0
35, 3, 5, 15.304530048317078, 0, 14, 5.0, 1, 11, 259, 11, 0, 1, 0, 1, 0
35, 3, 6, 15.132869046150763, 0, 16, 6.0, 1, 10, 348, 10, 0, 1, 0, 1, 0
35, 3, 7, 15.198364588717846, 0, 21, 7.0, 1, 2, 493, 2, 0, 1, 0, 1, 0
35, 3, 8, 15.052281733288446, 0, 18, 7.0, 6, 33, 475, 76, 0, 1, 0, 1, 0
35, 3, 9, 15.071736704152762, 0, 16, 8.0, 3, 13, 532, 34, 0, 1, 0, 1, 0
35, 3, 10, 15.18300920185835, 0, 16, 7.0, 2, 16, 537, 27, 0, 1, 0, 1, 0
35, 3, 11, 15.291449498226356, 0, 19, 7.0, 3, 36, 600, 78, 0, 1, 0, 1, 0
35, 4, 3, 12.544234461932732, 1, 13, 5.0, 0, 0, 223, 0, 0, 1, 0, 0, 0
35, 4, 4, 12.45488810948812, 0, 13, 4.0, 2, 41, 326, 52, 0, 1, 0, 1, 0
35, 4, 5, 12.725881724819791, 0, 16, 7.0, 3, 14, 436, 35, 0, 1, 0, 1, 0
35, 4, 6, 12.429392918192367, 1, 19, 7.0, 0, 0, 537, 0, 0, 1, 0, 0, 0
35, 4, 7, 12.254095002095228, 0, 16, 7.0, 1, 13, 591, 13, 0, 1, 0, 1, 0
35, 4, 8, 12.309180586163757, 0, 19, 7.0, 1, 12, 667, 12, 0, 1, 0, 1, 0
35, 4, 9, 12.096732234083033, 0, 23, 9.0, 1, 12, 774, 12, 0, 1, 0, 1, 0
35, 4, 10, 12.20351946860536, 0, 22, 9.0, 3, 14, 884, 20, 0, 1, 0, 1, 0
35, 4, 11, 12.006943168757813, 0, 22, 8.0, 3, 17, 909, 39, 0, 1, 0, 1, 0
35, 5, 3, 9.074387454672955, 0, 12, 6.0, 1, 34, 331, 34, 0, 1, 0, 1, 0
35, 5, 4, 9.393186719645808, 0, 15, 6.0, 2, 12, 403, 15, 0, 1, 0, 1, 0
35, 5, 5, 9.241382696811268, 0, 19, 8.0, 1, 12, 653, 12, 0, 1, 0, 1, 0
35, 5, 6, 9.032918982383514, 0, 17, 8.0, 2, 37, 669, 72, 0, 1, 0, 1, 0
35, 5, 7, 9.098138101414937, 0, 20, 8.0, 8, 39, 769, 148, 0, 1, 0, 1, 0
35, 5, 8, 9.001825688751094, 0, 22, 8.0, 3, 12, 896, 35, 0, 1, 0, 1, 0
35, 5, 9, 8.895149227145911, 0, 22, 9.0, 7, 41, 906, 123, 0, 1, 0, 1, 0
35, 5, 10, 8.82446623271473, 0, 19, 8.0, 6, 20, 1109, 75, 0, 1, 0, 1, 0
35, 5, 11, 8.812652810089244, 0, 22, 8.0, 4, 40, 1093, 99, 0, 1, 0, 1, 0
35, 6, 3, 12.461514290590728, 0, 18, 6.0, 2, 48, 414, 56, 0, 1, 0, 1, 0
35, 6, 4, 12.26856043050772, 0, 18, 7.0, 3, 14, 544, 27, 0, 1, 0, 1, 0
35, 6, 5, 12.225140577914383, 0, 19, 8.0, 2, 38, 662, 53, 0, 1, 0, 1, 0
35, 6, 6, 12.103297301313807, 0, 23, 9.0, 3, 45, 832, 99, 0, 1, 0, 1, 0
35, 6, 7, 11.932839189677528, 0, 20, 8.0, 2, 11, 986, 22, 0, 1, 0, 1, 0
35, 6, 8, 11.902956996045692, 0, 18, 8.0, 4, 13, 976, 38, 0, 1, 0, 1, 0
35, 6, 9, 11.989701139019218, 0, 21, 8.0, 3, 38, 1086, 62, 0, 1, 0, 1, 0
35, 6, 10, 11.732302760503572, 0, 21, 8.0, 8, 46, 1179, 143, 0, 1, 0, 1, 0
35, 6, 11, 11.677221230020118, 0, 22, 8.0, 5, 47, 1250, 128, 0, 1, 0, 1, 0
35, 7, 3, 6.6730587164102495, 0, 18, 6.0, 1, 14, 477, 14, 0, 1, 0, 1, 0
35, 7, 4, 6.587755282318991, 0, 19, 7.0, 5, 35, 650, 87, 0, 1, 0, 1, 0
35, 7, 5, 6.486153539411712, 0, 22, 9.0, 6, 19, 806, 77, 0, 1, 0, 1, 0
35, 7, 6, 6.351983553986613, 1, 19, 8.0, 0, 0, 954, 0, 0, 1, 0, 0, 0
35, 7, 7, 6.323963162492779, 0, 21, 8.0, 5, 77, 1087, 153, 1, 1, 1, 1, 0
35, 7, 8, 6.274443507908928, 0, 22, 8.0, 9, 40, 1145, 171, 1, 1, 1, 1, 0
35, 7, 9, 6.2824601824401265, 0, 19, 7.0, 7, 41, 1192, 166, 0, 1, 0, 1, 0
35, 7, 10, 6.274762954994101, 0, 19, 7.0, 5, 18, 1303, 73, 0, 1, 0, 1, 0
35, 7, 11, 6.240915254777358, 0, 19, 7.0, 3, 35, 1306, 60, 1, 1, 1, 1, 0
35, 8, 3, 8.387274050076323, 0, 18, 6.0, 4, 36, 532, 65, 0, 1, 0, 1, 0
35, 8, 4, 8.491279818369296, 0, 22, 7.0, 1, 12, 756, 12, 0, 1, 0, 1, 0
35, 8, 5, 8.29145404654469, 0, 20, 8.0, 4, 22, 929, 68, 0, 1, 0, 1, 0
35, 8, 6, 8.187019694278824, 0, 22, 7.0, 8, 45, 1044, 161, 0, 1, 0, 1, 0
35, 8, 7, 8.07658742011928, 0, 21, 7.0, 4, 37, 1181, 118, 0, 1, 0, 1, 0
35, 8, 8, 8.103427650869806, 0, 25, 7.0, 9, 19, 1187, 85, 1, 1, 1, 1, 0
35, 8, 9, 7.981828962389991, 0, 19, 7.0, 8, 40, 1310, 142, 0, 1, 0, 1, 0
35, 8, 10, 7.962861756729865, 0, 17, 6.0, 7, 50, 1401, 198, 1, 1, 1, 1, 0
35, 8, 11, 7.956686754389151, 0, 20, 7.0, 10, 53, 1363, 206, 0, 1, 0, 1, 0
35, 9, 3, 17.385036506340178, 0, 19, 7.0, 2, 39, 596, 76, 0, 1, 0, 1, 0
35, 9, 4, 17.208899764570877, 0, 20, 8.0, 3, 32, 794, 71, 0, 1, 0, 1, 0
35, 9, 5, 17.01441718692806, 0, 22, 8.0, 3, 18, 923, 49, 0, 1, 0, 1, 0
35, 9, 6, 16.717862412692458, 0, 21, 8.0, 3, 48, 1169, 101, 0, 1, 0, 1, 0
35, 9, 7, 16.641038399218143, 0, 20, 8.0, 8, 42, 1232, 125, 0, 1, 0, 1, 0
35, 9, 8, 16.580631419097003, 0, 18, 6.0, 9, 75, 1263, 208, 1, 1, 1, 1, 0
35, 9, 9, 16.513574216270236, 0, 17, 6.0, 10, 44, 1312, 209, 0, 1, 0, 1, 0
35, 9, 10, 16.393269667605267, 0, 17, 6.0, 7, 37, 1403, 149, 1, 1, 1, 1, 0
35, 9, 11, 16.290916219461494, 0, 18, 5.0, 10, 47, 1467, 214, 0, 1, 0, 1, 0
35, 10, 3, 11.717252454389474, 0, 18, 8.0, 1, 7, 651, 7, 0, 1, 0, 1, 0
35, 10, 4, 11.615360128774087, 0, 20, 8.0, 6, 37, 857, 99, 0, 1, 0, 1, 0
35, 10, 5, 11.539971216296076, 0, 19, 7.0, 7, 45, 1009, 152, 0, 1, 0, 1, 0
35, 10, 6, 11.320053582709813, 0, 22, 7.0, 9, 46, 1232, 184, 0, 1, 0, 1, 0
35, 10, 7, 11.268665706722631, 0, 16, 6.0, 7, 46, 1298, 150, 0, 1, 0, 1, 0
35, 10, 8, 11.212028508895035, 0, 19, 6.0, 9, 42, 1299, 177, 1, 1, 1, 1, 0
35, 10, 9, 11.144448091615342, 0, 18, 5.0, 13, 75, 1393, 338, 1, 1, 1, 1, 0
35, 10, 10, 11.08918145503732, 0, 15, 5.0, 12, 79, 1439, 318, 1, 1, 1, 1, 0
35, 10, 11, 11.015248586948129, 0, 19, 5.0, 9, 87, 1474, 266, 1, 1, 1, 1, 0
35, 11, 3, 5.955164252669331, 0, 18, 7.0, 4, 43, 718, 72, 0, 1, 0, 1, 0
35, 11, 4, 5.843337245473717, 0, 22, 8.0, 6, 43, 954, 94, 0, 1, 0, 1, 0
35, 11, 5, 5.801271904650382, 0, 25, 7.0, 6, 31, 1104, 93, 0, 1, 0, 1, 0
35, 11, 6, 5.72488277189713, 0, 19, 8.0, 5, 46, 1250, 145, 0, 1, 0, 1, 0
35, 11, 7, 5.660292414550386, 0, 18, 7.0, 8, 49, 1332, 217, 1, 1, 1, 1, 0
35, 11, 8, 5.634034623172682, 0, 19, 6.0, 10, 52, 1403, 212, 0, 1, 0, 1, 0
35, 11, 9, 5.626640155570246, 0, 17, 6.0, 11, 43, 1404, 236, 1, 1, 1, 1, 0
35, 11, 10, 5.622167631749299, 0, 17, 4.0, 14, 51, 1468, 356, 1, 1, 1, 1, 0
35, 11, 11, 5.58386427509561, 0, 16, 4.0, 15, 86, 1484, 408, 1, 1, 1, 1, 0
35, 12, 3, 22.825499489341997, 0, 18, 7.0, 1, 11, 815, 11, 0, 1, 0, 1, 0
35, 12, 4, 22.403136505385408, 0, 20, 8.0, 7, 48, 990, 118, 0, 1, 0, 1, 0
35, 12, 5, 22.00386895643386, 0, 18, 7.0, 10, 42, 1150, 188, 0, 1, 0, 1, 0
35, 12, 6, 21.951042013171087, 0, 18, 7.0, 6, 49, 1293, 151, 0, 1, 0, 1, 0
35, 12, 7, 21.797518418625142, 0, 19, 6.0, 9, 48, 1425, 220, 0, 1, 0, 1, 0
35, 12, 8, 21.69407425903728, 0, 15, 5.0, 9, 47, 1430, 225, 1, 1, 1, 1, 0
35, 12, 9, 21.66308820662483, 0, 20, 5.0, 13, 98, 1489, 337, 1, 1, 1, 1, 1
35, 12, 10, 21.595676284821717, 0, 14, 4.0, 10, 80, 1493, 323, 1, 1, 1, 1, 0
35, 12, 11, 21.615136592940203, 0, 13, 4.0, 13, 81, 1524, 401, 1, 1, 1, 1, 0
35, 13, 3, 19.544546383181395, 0, 19, 8.0, 3, 11, 861, 22, 0, 1, 0, 1, 0
35, 13, 4, 19.032560128604537, 0, 20, 8.0, 6, 45, 1031, 101, 0, 1, 0, 1, 0
35, 13, 5, 18.864962465750658, 0, 22, 8.0, 9, 45, 1200, 189, 0, 1, 0, 1, 0
35, 13, 6, 18.777766193464068, 0, 19, 6.0, 10, 48, 1264, 229, 0, 1, 0, 1, 0
35, 13, 7, 18.595464743197116, 0, 17, 5.0, 7, 124, 1426, 247, 1, 1, 1, 1, 1
35, 13, 8, 18.443556761643716, 0, 16, 5.0, 11, 78, 1448, 286, 1, 1, 1, 1, 0
35, 13, 9, 18.44231940533782, 0, 15, 4.0, 10, 51, 1491, 170, 0, 1, 0, 1, 0
35, 13, 10, 18.34350000107391, 0, 13, 3.0, 15, 56, 1552, 390, 1, 1, 1, 1, 0
35, 13, 11, 18.31653803874636, 0, 13, 3.0, 15, 85, 1526, 451, 1, 1, 1, 1, 0
35, 14, 3, 15.67012587211909, 0, 20, 8.0, 4, 40, 910, 67, 0, 1, 0, 1, 0
35, 14, 4, 15.381512693078992, 0, 24, 7.0, 9, 44, 1109, 147, 0, 1, 0, 1, 0
35, 14, 5, 15.174895808487777, 0, 22, 7.0, 9, 46, 1224, 182, 0, 1, 0, 1, 0
35, 14, 6, 15.100420683287055, 0, 19, 6.0, 9, 110, 1339, 265, 1, 1, 1, 1, 0
35, 14, 7, 15.089632564433698, 0, 17, 5.0, 11, 77, 1408, 310, 1, 1, 1, 1, 0
35, 14, 8, 14.950390263778406, 0, 18, 4.0, 11, 77, 1426, 303, 1, 1, 1, 1, 0
35, 14, 9, 14.839658464295024, 0, 16, 4.0, 10, 47, 1488, 223, 1, 1, 1, 1, 0
35, 14, 10, 14.804523442348406, 0, 12, 3.0, 14, 166, 1536, 489, 1, 1, 1, 1, 0
35, 14, 11, 14.787473647413707, 0, 13, 3.0, 13, 125, 1553, 478, 1, 1, 1, 1, 1
35, 15, 3, 11.73397992571021, 0, 20, 7.0, 8, 42, 926, 157, 0, 1, 0, 1, 0
35, 15, 4, 11.409536723539954, 0, 20, 8.0, 6, 54, 1133, 148, 0, 1, 0, 1, 0
35, 15, 5, 11.28569074088985, 0, 22, 7.0, 9, 24, 1304, 144, 0, 1, 0, 1, 0
35, 15, 6, 11.20774893407711, 0, 18, 6.0, 12, 50, 1372, 245, 0, 1, 0, 1, 0
35, 15, 7, 11.16476971571087, 0, 15, 4.0, 12, 49, 1427, 297, 1, 1, 1, 1, 0
35, 15, 8, 11.097931593211007, 0, 18, 4.0, 15, 81, 1487, 393, 1, 1, 1, 1, 0
35, 15, 9, 11.035449306920789, 0, 14, 4.0, 12, 81, 1503, 339, 1, 1, 1, 1, 0
35, 15, 10, 10.995377664050586, 0, 12, 3.0, 12, 176, 1556, 589, 1, 1, 1, 1, 0
35, 15, 11, 10.99066107813145, 0, 11, 3.0, 13, 54, 1574, 379, 1, 1, 1, 1, 0
35, 16, 3, 7.427752571884092, 0, 17, 7.0, 3, 41, 977, 87, 0, 1, 0, 1, 0
35, 16, 4, 7.277822206525734, 0, 19, 6.0, 8, 53, 1200, 173, 0, 1, 0, 1, 0
35, 16, 5, 7.15056953604364, 0, 18, 6.0, 12, 47, 1333, 267, 0, 1, 0, 1, 0
35, 16, 6, 7.104369038616921, 0, 18, 5.0, 11, 49, 1466, 292, 0, 1, 0, 1, 0
35, 16, 7, 7.132198986620725, 0, 16, 4.0, 10, 73, 1430, 321, 0, 1, 0, 1, 0
35, 16, 8, 7.094149360835124, 0, 16, 4.0, 14, 81, 1457, 441, 1, 1, 1, 1, 0
35, 16, 9, 7.06131580199899, 0, 16, 4.0, 13, 82, 1511, 355, 1, 1, 1, 1, 0
35, 16, 10, 7.005891392271401, 0, 12, 3.0, 17, 80, 1571, 568, 1, 1, 1, 1, 0
35, 16, 11, 7.005096911876974, 0, 15, 2.0, 16, 84, 1568, 667, 1, 1, 1, 1, 0
35, 17, 3, 3.3225012829074263, 0, 21, 7.0, 4, 40, 1010, 72, 0, 1, 0, 1, 0
35, 17, 4, 3.2717787445572313, 0, 22, 7.0, 6, 45, 1195, 119, 0, 1, 0, 1, 0
35, 17, 5, 3.2058168496049366, 0, 20, 6.0, 12, 49, 1368, 273, 0, 1, 0, 1, 0
35, 17, 6, 3.1806808885713425, 0, 16, 5.0, 8, 48, 1446, 225, 0, 1, 0, 1, 0
35, 17, 7, 3.1763522131174335, 0, 13, 4.0, 11, 169, 1472, 389, 1, 1, 1, 1, 0
35, 17, 8, 3.177168166640034, 0, 12, 3.0, 14, 49, 1496, 351, 1, 1, 1, 1, 0
35, 17, 9, 3.1673633595584674, 0, 11, 2.0, 17, 172, 1499, 523, 1, 1, 1, 1, 0
35, 17, 10, 3.145118258951642, 0, 11, 2.0, 17, 82, 1559, 529, 1, 1, 1, 1, 0
35, 17, 11, 3.1341216734940867, 0, 9, 2.0, 15, 174, 1571, 649, 1, 1, 1, 1, 0
35, 18, 3, 32.19389282659595, 0, 18, 7.0, 5, 42, 1058, 74, 0, 1, 0, 1, 0
35, 18, 4, 31.348719036955785, 0, 16, 6.0, 4, 45, 1260, 90, 0, 1, 0, 1, 0
35, 18, 5, 31.259954407680222, 0, 21, 6.0, 10, 45, 1385, 231, 0, 1, 0, 1, 0
35, 18, 6, 31.079007388299928, 0, 16, 5.0, 10, 52, 1457, 278, 1, 1, 1, 1, 0
35, 18, 7, 30.999991844542052, 0, 12, 3.0, 10, 59, 1464, 278, 0, 1, 0, 1, 0
35, 18, 8, 31.07044455145857, 0, 12, 3.0, 8, 55, 1477, 232, 1, 1, 1, 1, 0
35, 18, 9, 31.07095501060022, 0, 11, 2.0, 18, 176, 1485, 657, 1, 1, 1, 1, 0
35, 18, 10, 30.90564959884212, 0, 11, 2.0, 14, 145, 1559, 599, 1, 1, 1, 1, 0
35, 18, 11, 30.80935097960404, 0, 11, 2.0, 16, 92, 1577, 643, 1, 1, 1, 1, 0
35, 19, 3, 30.979293213907816, 0, 18, 7.0, 4, 46, 1031, 109, 0, 1, 0, 1, 0
35, 19, 4, 30.07049165867308, 0, 24, 6.0, 10, 47, 1286, 212, 0, 1, 0, 1, 0
35, 19, 5, 29.950049227328968, 0, 22, 5.0, 13, 54, 1364, 300, 0, 1, 0, 1, 0
35, 19, 6, 29.767926475422744, 0, 15, 5.0, 14, 53, 1468, 385, 0, 1, 0, 1, 0
35, 19, 7, 29.730991877156438, 0, 13, 3.0, 13, 85, 1501, 490, 1, 1, 1, 1, 0
35, 19, 8, 29.714830296599313, 0, 15, 3.0, 11, 49, 1519, 340, 1, 1, 1, 1, 0
35, 19, 9, 29.787746406658542, 0, 17, 3.0, 18, 82, 1525, 577, 1, 1, 1, 1, 0
35, 19, 10, 29.606987648279723, 0, 13, 2.0, 17, 82, 1573, 634, 1, 1, 1, 1, 0
35, 19, 11, 29.571584833495873, 0, 9, 2.0, 14, 113, 1583, 666, 1, 1, 1, 1, 0
40, 3, 3, 18.907803162631332, 0, 12, 5.0, 1, 25, 179, 25, 0, 1, 0, 1, 0
40, 3, 4, 18.552533155172586, 0, 15, 6.0, 1, 24, 201, 24, 0, 1, 0, 1, 0
40, 3, 5, 18.401123301644258, 0, 17, 6.0, 3, 25, 322, 64, 0, 1, 0, 1, 0
40, 3, 6, 17.968922277907208, 0, 17, 7.0, 3, 28, 363, 34, 0, 1, 0, 1, 0
40, 3, 7, 17.81928341072594, 0, 23, 8.0, 3, 25, 446, 62, 0, 1, 0, 1, 0
40, 3, 8, 17.634521936669216, 0, 17, 7.0, 3, 27, 501, 33, 0, 1, 0, 1, 0
40, 3, 9, 18.002459051289662, 0, 20, 8.0, 3, 3, 561, 8, 0, 1, 0, 1, 0
40, 3, 10, 17.971047442757236, 0, 20, 9.0, 2, 28, 573, 53, 0, 1, 0, 1, 0
40, 3, 11, 18.03032357128256, 0, 20, 9.0, 3, 25, 621, 39, 0, 1, 0, 1, 0
40, 4, 3, 13.947558236881985, 1, 16, 6.0, 0, 0, 241, 0, 0, 1, 0, 0, 0
40, 4, 4, 14.311205093702295, 1, 16, 7.0, 0, 0, 351, 0, 0, 1, 0, 0, 1
40, 4, 5, 14.391271312568248, 0, 16, 6.0, 2, 5, 417, 6, 0, 1, 0, 1, 0
40, 4, 6, 14.0436993658664, 0, 17, 7.0, 3, 27, 568, 53, 0, 1, 0, 1, 0
40, 4, 7, 13.724775501404345, 0, 21, 8.0, 1, 28, 653, 28, 0, 1, 0, 1, 0
40, 4, 8, 14.006197164679442, 0, 19, 8.0, 5, 24, 752, 44, 0, 1, 0, 1, 0
40, 4, 9, 13.69446859341779, 0, 21, 9.0, 3, 27, 758, 57, 0, 1, 0, 1, 0
40, 4, 10, 13.789613092771896, 0, 21, 9.0, 4, 27, 823, 45, 0, 1, 0, 1, 0
40, 4, 11, 13.453886974129688, 0, 25, 10.0, 2, 27, 880, 39, 0, 1, 0, 1, 0
40, 5, 3, 10.850092493462576, 0, 14, 6.0, 1, 3, 345, 3, 0, 1, 0, 1, 0
40, 5, 4, 11.457795041399295, 1, 16, 7.0, 0, 0, 419, 0, 0, 1, 0, 0, 0
40, 5, 5, 11.270249823468482, 0, 20, 8.0, 4, 28, 590, 36, 0, 1, 0, 1, 0
40, 5, 6, 11.088953874054459, 0, 18, 7.0, 3, 2, 653, 6, 0, 1, 0, 1, 0
40, 5, 7, 11.08475966720585, 0, 22, 8.0, 2, 28, 792, 30, 0, 1, 0, 1, 0
40, 5, 8, 10.986707339661152, 0, 23, 10.0, 3, 27, 867, 34, 0, 1, 0, 1, 0
40, 5, 9, 10.87738217411612, 0, 23, 10.0, 3, 34, 977, 52, 0, 1, 0, 1, 0
40, 5, 10, 10.755017005063639, 0, 20, 9.0, 2, 26, 1078, 34, 0, 1, 0, 1, 0
40, 5, 11, 10.811603104349345, 0, 26, 10.0, 7, 27, 1141, 78, 0, 1, 0, 1, 0
40, 6, 3, 12.38533844659027, 0, 16, 6.0, 4, 5, 367, 12, 0, 1, 0, 1, 0
40, 6, 4, 12.241563088434429, 0, 19, 8.0, 1, 19, 547, 19, 0, 1, 0, 1, 0
40, 6, 5, 12.21849931364038, 0, 22, 9.0, 1, 5, 644, 5, 0, 1, 0, 1, 0
40, 6, 6, 12.031274469480259, 0, 21, 9.0, 6, 38, 819, 87, 0, 1, 0, 1, 0
40, 6, 7, 12.012261994515427, 0, 22, 9.0, 3, 30, 1039, 36, 0, 1, 0, 1, 0
40, 6, 8, 11.932456782824552, 0, 26, 10.0, 4, 29, 1056, 64, 0, 1, 0, 1, 0
40, 6, 9, 11.925969552469763, 0, 26, 10.0, 7, 32, 1114, 93, 0, 1, 0, 1, 0
40, 6, 10, 11.80773936773598, 0, 26, 9.0, 7, 40, 1185, 106, 0, 1, 0, 1, 0
40, 6, 11, 11.778594218082352, 0, 21, 8.0, 7, 41, 1268, 110, 1, 1, 1, 1, 0
40, 7, 3, 13.233173084818848, 0, 16, 6.0, 2, 26, 460, 50, 0, 1, 0, 1, 0
40, 7, 4, 13.084638814952912, 0, 23, 9.0, 2, 28, 569, 55, 0, 1, 0, 1, 0
40, 7, 5, 13.051567409911975, 0, 21, 9.0, 2, 8, 786, 9, 0, 1, 0, 1, 0
40, 7, 6, 13.056899805475732, 0, 23, 9.0, 4, 26, 936, 63, 0, 1, 0, 1, 0
40, 7, 7, 12.87291753983615, 0, 21, 9.0, 4, 33, 1071, 54, 0, 1, 0, 1, 0
40, 7, 8, 12.790332820910843, 0, 24, 9.0, 5, 31, 1173, 77, 1, 1, 1, 1, 0
40, 7, 9, 12.753583104282658, 0, 22, 8.0, 7, 30, 1270, 75, 0, 1, 0, 1, 0
40, 7, 10, 12.673657543940008, 0, 24, 9.0, 6, 34, 1308, 101, 0, 1, 0, 1, 0
40, 7, 11, 12.650255341456042, 0, 21, 8.0, 7, 38, 1358, 108, 0, 1, 0, 1, 0
40, 8, 3, 7.033405751542997, 0, 17, 7.0, 1, 2, 505, 2, 0, 1, 0, 1, 1
40, 8, 4, 6.9749132354196774, 0, 22, 9.0, 2, 28, 718, 52, 0, 1, 0, 1, 0
40, 8, 5, 6.803179900710238, 0, 22, 9.0, 3, 28, 971, 37, 0, 1, 0, 1, 0
40, 8, 6, 6.784253061266567, 0, 21, 9.0, 5, 6, 1053, 21, 0, 1, 0, 1, 0
40, 8, 7, 6.7499729005497615, 0, 22, 9.0, 5, 32, 1208, 57, 0, 1, 0, 1, 0
40, 8, 8, 6.720792550180668, 0, 22, 9.0, 5, 29, 1236, 87, 1, 1, 1, 1, 0
40, 8, 9, 6.668660807202089, 0, 19, 8.0, 11, 35, 1340, 154, 1, 1, 1, 1, 0
40, 8, 10, 6.627795071849434, 0, 19, 7.0, 13, 85, 1456, 221, 1, 1, 1, 1, 0
40, 8, 11, 6.634311395312312, 0, 18, 7.0, 10, 37, 1443, 169, 1, 1, 1, 1, 0
40, 9, 3, 10.894482946768493, 0, 17, 8.0, 3, 25, 601, 39, 0, 1, 0, 1, 0
40, 9, 4, 10.864689006494133, 0, 24, 9.0, 5, 30, 785, 68, 0, 1, 0, 1, 1
40, 9, 5, 10.666725185370561, 0, 25, 9.0, 1, 30, 1000, 30, 0, 1, 0, 1, 0
40, 9, 6, 10.606895724797358, 0, 24, 10.0, 8, 40, 1120, 102, 0, 1, 0, 1, 0
40, 9, 7, 10.574013019548211, 0, 21, 9.0, 9, 45, 1259, 143, 1, 1, 1, 1, 0
40, 9, 8, 10.526460069938041, 0, 21, 7.0, 6, 35, 1301, 92, 0, 1, 0, 1, 0
40, 9, 9, 10.43239655029805, 0, 19, 7.0, 11, 38, 1418, 141, 1, 1, 1, 1, 0
40, 9, 10, 10.373973169865724, 0, 19, 7.0, 6, 46, 1469, 180, 1, 1, 1, 1, 0
40, 9, 11, 10.350150160407273, 0, 17, 6.0, 9, 73, 1550, 238, 1, 1, 1, 1, 0
40, 10, 3, 5.620069245699483, 0, 23, 8.0, 1, 29, 678, 29, 0, 1, 0, 1, 0
40, 10, 4, 5.636845642641874, 0, 24, 9.0, 3, 31, 886, 44, 0, 1, 0, 1, 0
40, 10, 5, 5.548534177093884, 0, 22, 8.0, 4, 32, 1076, 45, 0, 1, 0, 1, 0
40, 10, 6, 5.450039662192124, 0, 22, 9.0, 6, 44, 1239, 136, 1, 1, 1, 1, 0
40, 10, 7, 5.413474483421217, 0, 23, 9.0, 6, 38, 1349, 137, 1, 1, 1, 1, 0
40, 10, 8, 5.4159532447255785, 0, 24, 7.0, 4, 71, 1364, 116, 1, 1, 1, 1, 0
40, 10, 9, 5.383210148765904, 0, 19, 7.0, 14, 45, 1468, 220, 1, 1, 1, 1, 0
40, 10, 10, 5.33912464291933, 0, 21, 6.0, 13, 82, 1519, 250, 1, 1, 1, 1, 0
40, 10, 11, 5.312856502135225, 0, 18, 6.0, 8, 42, 1551, 139, 1, 1, 1, 1, 0
40, 11, 3, 16.66989335863275, 0, 20, 9.0, 1, 1, 749, 1, 0, 1, 0, 1, 0
40, 11, 4, 16.570562920263388, 0, 22, 9.0, 3, 33, 970, 70, 0, 1, 0, 1, 1
40, 11, 5, 16.39624720137067, 0, 25, 10.0, 5, 28, 1117, 59, 0, 1, 0, 1, 0
40, 11, 6, 16.300894724416036, 0, 20, 8.0, 10, 42, 1263, 161, 1, 1, 1, 1, 0
40, 11, 7, 16.128612073154304, 0, 21, 8.0, 6, 49, 1398, 132, 0, 1, 0, 1, 0
40, 11, 8, 16.074715772294464, 0, 21, 7.0, 13, 33, 1427, 165, 1, 1, 1, 1, 0
40, 11, 9, 16.03069193925748, 0, 18, 6.0, 12, 53, 1481, 241, 1, 1, 1, 1, 1
40, 11, 10, 16.025928841767062, 0, 18, 6.0, 13, 77, 1544, 283, 1, 1, 1, 1, 0
40, 11, 11, 15.869143663961347, 0, 16, 5.0, 13, 78, 1607, 280, 1, 1, 1, 1, 0
40, 12, 3, 10.455766904209781, 0, 20, 8.0, 2, 34, 755, 48, 1, 1, 1, 1, 0
40, 12, 4, 10.402948277894867, 0, 22, 9.0, 8, 71, 968, 137, 1, 1, 1, 1, 0
40, 12, 5, 10.330118763511463, 0, 23, 9.0, 5, 28, 1216, 83, 0, 1, 0, 1, 0
40, 12, 6, 10.185744506912577, 0, 20, 8.0, 11, 41, 1347, 183, 0, 1, 0, 1, 1
40, 12, 7, 10.076744409184572, 0, 21, 8.0, 8, 45, 1454, 152, 1, 1, 1, 1, 0
40, 12, 8, 10.098464048291536, 0, 23, 6.0, 11, 124, 1450, 239, 1, 1, 1, 1, 1
40, 12, 9, 10.017866283946452, 0, 17, 6.0, 11, 78, 1509, 275, 1, 1, 1, 1, 0
40, 12, 10, 10.00873715721571, 0, 16, 5.0, 11, 76, 1566, 297, 1, 1, 1, 1, 0
40, 12, 11, 9.969166452933571, 0, 11, 4.0, 14, 79, 1599, 343, 1, 1, 1, 1, 0
40, 13, 3, 4.788404661597216, 0, 19, 8.0, 2, 32, 844, 61, 0, 1, 0, 1, 0
40, 13, 4, 4.717217144203786, 0, 21, 9.0, 5, 37, 1097, 64, 1, 1, 1, 1, 0
40, 13, 5, 4.661646190136196, 0, 24, 9.0, 6, 29, 1295, 66, 0, 1, 0, 1, 0
40, 13, 6, 4.652908506021764, 0, 21, 7.0, 10, 42, 1333, 180, 1, 1, 1, 1, 0
40, 13, 7, 4.6023330388225405, 0, 18, 6.0, 12, 41, 1450, 176, 1, 1, 1, 1, 0
40, 13, 8, 4.55567631879183, 0, 19, 6.0, 11, 39, 1542, 187, 1, 1, 1, 1, 0
40, 13, 9, 4.555373347393121, 0, 20, 6.0, 10, 92, 1536, 251, 1, 1, 1, 1, 1
40, 13, 10, 4.532010194793563, 0, 15, 4.0, 14, 168, 1586, 420, 1, 1, 1, 1, 1
40, 13, 11, 4.531170911559887, 0, 13, 4.0, 14, 76, 1593, 356, 1, 1, 1, 1, 0
40, 14, 3, 26.4950618579265, 0, 19, 8.0, 2, 25, 924, 42, 1, 1, 1, 1, 0
40, 14, 4, 25.78880977392357, 0, 21, 9.0, 4, 37, 1126, 106, 1, 1, 1, 1, 0
40, 14, 5, 25.608796242381697, 0, 22, 9.0, 4, 34, 1311, 65, 0, 1, 0, 1, 0
40, 14, 6, 25.688628724662518, 0, 19, 7.0, 12, 42, 1361, 195, 1, 1, 1, 1, 0
40, 14, 7, 25.384473280416586, 0, 17, 6.0, 10, 41, 1474, 181, 1, 1, 1, 1, 0
40, 14, 8, 25.250428413294216, 0, 17, 5.0, 11, 47, 1525, 238, 1, 1, 1, 1, 0
40, 14, 9, 25.195473498811747, 0, 18, 4.0, 12, 76, 1545, 245, 1, 1, 1, 1, 0
40, 14, 10, 25.123815036091447, 0, 15, 4.0, 12, 44, 1609, 302, 1, 1, 1, 1, 0
40, 14, 11, 25.080155772896937, 0, 12, 3.0, 13, 69, 1612, 314, 1, 1, 1, 1, 0
40, 15, 3, 22.800804643134914, 0, 24, 10.0, 6, 32, 994, 65, 1, 1, 1, 1, 0
40, 15, 4, 22.372117661589204, 0, 22, 9.0, 4, 72, 1132, 113, 1, 1, 1, 1, 0
40, 15, 5, 22.146534071307087, 0, 20, 8.0, 9, 29, 1319, 106, 0, 1, 0, 1, 1
40, 15, 6, 22.167057384301994, 0, 21, 7.0, 13, 78, 1437, 254, 1, 1, 1, 1, 0
40, 15, 7, 22.036904254455575, 0, 15, 5.0, 12, 42, 1505, 211, 1, 1, 1, 1, 0
40, 15, 8, 21.910148734408363, 0, 17, 5.0, 9, 93, 1512, 206, 1, 1, 1, 1, 1
40, 15, 9, 21.812580215992483, 0, 15, 4.0, 11, 48, 1581, 257, 1, 1, 1, 1, 0
40, 15, 10, 21.77359923589138, 0, 12, 3.0, 15, 171, 1615, 441, 1, 1, 1, 1, 1
40, 15, 11, 21.745095951737923, 0, 9, 2.0, 17, 47, 1615, 406, 1, 1, 1, 1, 0
40, 16, 3, 19.032460888605772, 0, 21, 9.0, 5, 33, 997, 59, 1, 1, 1, 1, 0
40, 16, 4, 18.594607715371033, 0, 23, 9.0, 3, 38, 1176, 73, 1, 1, 1, 1, 0
40, 16, 5, 18.41735239334005, 0, 22, 7.0, 8, 34, 1357, 146, 0, 1, 0, 1, 1
40, 16, 6, 18.351161983257136, 0, 20, 6.0, 10, 124, 1461, 244, 1, 1, 1, 1, 1
40, 16, 7, 18.344805032828862, 0, 17, 5.0, 10, 123, 1498, 249, 1, 1, 1, 1, 1
40, 16, 8, 18.2320019689823, 0, 20, 5.0, 13, 73, 1556, 295, 1, 1, 1, 1, 0
40, 16, 9, 18.108116048186705, 0, 16, 4.0, 13, 125, 1589, 330, 1, 1, 1, 1, 1
40, 16, 10, 18.08505521518845, 0, 12, 3.0, 13, 49, 1609, 307, 1, 1, 1, 1, 0
40, 16, 11, 18.048305249290348, 0, 10, 2.0, 16, 100, 1614, 553, 1, 1, 1, 1, 1
40, 17, 3, 14.722599940986171, 0, 19, 8.0, 6, 35, 1017, 80, 1, 1, 1, 1, 0
40, 17, 4, 14.564581482407085, 0, 21, 8.0, 6, 76, 1233, 154, 1, 1, 1, 1, 0
40, 17, 5, 14.345513976346632, 0, 19, 6.0, 14, 29, 1421, 200, 1, 1, 1, 1, 0
40, 17, 6, 14.278145722761566, 0, 19, 6.0, 6, 124, 1475, 239, 1, 1, 1, 1, 1
40, 17, 7, 14.269388244395532, 0, 15, 5.0, 12, 71, 1496, 274, 1, 1, 1, 1, 0
40, 17, 8, 14.19051974900893, 0, 19, 4.0, 15, 160, 1550, 443, 1, 1, 1, 1, 1
40, 17, 9, 14.106559173407389, 0, 14, 3.0, 18, 79, 1603, 443, 1, 1, 1, 1, 0
40, 17, 10, 14.05618950738699, 0, 14, 3.0, 17, 76, 1613, 513, 1, 1, 1, 1, 0
40, 17, 11, 14.031667425224123, 0, 8, 2.0, 17, 178, 1619, 565, 1, 1, 1, 1, 1
40, 18, 3, 10.25796058026052, 0, 20, 9.0, 6, 32, 1089, 99, 1, 1, 1, 1, 0
40, 18, 4, 10.062058470983795, 0, 20, 8.0, 5, 40, 1306, 104, 1, 1, 1, 1, 0
40, 18, 5, 9.934035703176606, 0, 22, 7.0, 9, 41, 1448, 119, 0, 1, 0, 1, 1
40, 18, 6, 9.91421247892167, 0, 16, 5.0, 13, 44, 1519, 282, 1, 1, 1, 1, 0
40, 18, 7, 9.902419803837123, 0, 13, 4.0, 10, 123, 1544, 269, 1, 1, 1, 1, 1
40, 18, 8, 9.924135333130403, 0, 14, 4.0, 16, 48, 1553, 290, 1, 1, 1, 1, 0
40, 18, 9, 9.845366891648384, 0, 17, 4.0, 16, 45, 1608, 380, 1, 1, 1, 1, 0
40, 18, 10, 9.80502005610518, 0, 14, 2.0, 13, 168, 1617, 595, 1, 1, 1, 1, 1
40, 18, 11, 9.806054145520651, 0, 8, 2.0, 18, 85, 1623, 671, 1, 1, 1, 1, 0
40, 19, 3, 5.704338455629601, 0, 21, 8.0, 8, 68, 1128, 127, 1, 1, 1, 1, 0
40, 19, 4, 5.584827877259204, 0, 18, 7.0, 7, 73, 1264, 186, 1, 1, 1, 1, 0
40, 19, 5, 5.5000580456961154, 0, 19, 6.0, 7, 49, 1483, 144, 0, 1, 0, 1, 1
40, 19, 6, 5.484645804184377, 0, 17, 5.0, 10, 160, 1519, 354, 1, 1, 1, 1, 1
40, 19, 7, 5.470400493256466, 0, 15, 4.0, 13, 74, 1579, 313, 1, 1, 1, 1, 0
40, 19, 8, 5.477772177586361, 0, 13, 3.0, 15, 84, 1556, 311, 1, 1, 1, 1, 0
40, 19, 9, 5.460206517467925, 0, 12, 3.0, 15, 186, 1571, 478, 1, 1, 1, 1, 0
40, 19, 10, 5.425118470045274, 0, 10, 2.0, 16, 91, 1629, 653, 1, 1, 1, 1, 0
40, 19, 11, 5.4185026308775175, 0, 12, 2.0, 14, 161, 1635, 684, 1, 1, 1, 1, 1
45, 3, 3, 22.173636612660392, 1, 10, 5.0, 0, 0, 123, 0, 0, 1, 0, 0, 1
45, 3, 4, 21.74843156893397, 2, 16, 7.0, 0, 0, 150, 0, 0, 1, 0, 0, 1
45, 3, 5, 21.416746024296796, 1, 15, 6.0, 0, 0, 308, 0, 0, 1, 0, 0, 1
45, 3, 6, 20.800353854046, 2, 18, 8.0, 0, 0, 308, 0, 0, 1, 0, 0, 1
45, 3, 7, 20.678319994864783, 2, 18, 8.0, 0, 0, 382, 0, 0, 1, 0, 0, 1
45, 3, 8, 20.810256746734193, 0, 20, 8.0, 2, 19, 511, 33, 0, 1, 0, 1, 0
45, 3, 9, 21.11641865371899, 1, 20, 9.0, 0, 0, 549, 0, 0, 1, 0, 0, 1
45, 3, 10, 21.130101500090095, 1, 18, 9.0, 0, 0, 598, 0, 0, 1, 0, 0, 0
45, 3, 11, 21.1539239406719, 0, 23, 10.0, 2, 20, 669, 37, 0, 1, 0, 1, 1
45, 4, 3, 16.979350797761033, 2, 14, 7.0, 0, 0, 251, 0, 0, 1, 0, 0, 1
45, 4, 4, 17.016408340785727, 0, 15, 7.0, 1, 15, 336, 15, 0, 1, 0, 1, 1
45, 4, 5, 16.924171141465425, 1, 15, 7.0, 0, 0, 380, 0, 0, 1, 0, 0, 1
45, 4, 6, 16.919664940363603, 1, 20, 9.0, 0, 0, 553, 0, 0, 1, 0, 0, 1
45, 4, 7, 16.588087760409255, 0, 19, 9.0, 2, 19, 667, 24, 0, 1, 0, 1, 0
45, 4, 8, 16.70497734649699, 0, 22, 10.0, 2, 20, 764, 39, 0, 1, 0, 1, 1
45, 4, 9, 16.589359913934626, 0, 23, 10.0, 1, 19, 856, 19, 0, 1, 0, 1, 0
45, 4, 10, 16.451227769329055, 1, 21, 10.0, 0, 0, 845, 0, 0, 1, 0, 0, 0
45, 4, 11, 16.29061821247417, 1, 24, 11.0, 0, 0, 953, 0, 0, 1, 0, 0, 0
45, 5, 3, 13.5243327836607, 2, 20, 8.0, 0, 0, 278, 0, 1, 1, 0, 0, 0
45, 5, 4, 13.646573135526316, 0, 22, 8.0, 1, 14, 441, 14, 0, 1, 0, 1, 1
45, 5, 5, 13.497921234323877, 0, 23, 10.0, 2, 16, 569, 31, 0, 1, 0, 1, 1
45, 5, 6, 13.479114002536424, 0, 24, 10.0, 2, 16, 667, 31, 0, 1, 0, 1, 1
45, 5, 7, 13.379373093715577, 0, 24, 10.0, 1, 23, 805, 23, 0, 1, 0, 1, 1
45, 5, 8, 13.272585778615664, 0, 25, 11.0, 1, 21, 1006, 21, 0, 1, 0, 1, 1
45, 5, 9, 13.210210951849087, 1, 26, 12.0, 0, 0, 1010, 0, 0, 1, 0, 0, 1
45, 5, 10, 13.132055102318626, 1, 25, 11.0, 0, 0, 1123, 0, 0, 1, 0, 0, 1
45, 5, 11, 13.021742915984987, 0, 27, 11.0, 3, 32, 1166, 65, 0, 1, 0, 1, 1
45, 6, 3, 12.912326186047013, 1, 16, 7.0, 0, 0, 338, 0, 0, 1, 0, 0, 0
45, 6, 4, 12.736563142312992, 1, 21, 8.0, 0, 0, 503, 0, 1, 1, 0, 0, 1
45, 6, 5, 12.83046677626493, 1, 21, 9.0, 0, 0, 662, 0, 0, 1, 0, 0, 1
45, 6, 6, 12.68848882099015, 0, 25, 10.0, 1, 18, 805, 18, 0, 1, 0, 1, 1
45, 6, 7, 12.616153835838755, 0, 27, 11.0, 2, 27, 992, 51, 0, 1, 0, 1, 0
45, 6, 8, 12.437287285076074, 0, 26, 12.0, 1, 4, 1158, 4, 0, 1, 0, 1, 0
45, 6, 9, 12.359681976905815, 0, 24, 11.0, 1, 26, 1226, 26, 0, 1, 0, 1, 1
45, 6, 10, 12.414662681130563, 0, 24, 10.0, 3, 27, 1285, 59, 0, 1, 0, 1, 0
45, 6, 11, 12.321036567780668, 0, 23, 9.0, 6, 29, 1331, 78, 1, 1, 1, 1, 0
45, 7, 3, 11.793785103775813, 1, 14, 7.0, 0, 0, 469, 0, 1, 1, 0, 0, 0
45, 7, 4, 11.474044480146304, 1, 19, 9.0, 0, 0, 624, 0, 0, 1, 0, 0, 1
45, 7, 5, 11.482708234158077, 0, 29, 11.0, 1, 21, 870, 21, 0, 1, 0, 1, 1
45, 7, 6, 11.385615819948281, 0, 21, 10.0, 1, 20, 969, 20, 0, 1, 0, 1, 0
45, 7, 7, 11.369690884195439, 0, 26, 11.0, 1, 32, 1109, 32, 0, 1, 0, 1, 0
45, 7, 8, 11.229560277377427, 0, 25, 11.0, 3, 23, 1271, 49, 1, 1, 1, 1, 0
45, 7, 9, 11.269728081083521, 0, 24, 10.0, 3, 45, 1344, 89, 1, 1, 1, 1, 0
45, 7, 10, 11.164279632622577, 0, 26, 11.0, 2, 21, 1472, 25, 0, 1, 0, 1, 0
45, 7, 11, 11.199238767164825, 0, 29, 10.0, 4, 38, 1411, 101, 1, 1, 1, 1, 0
45, 8, 3, 14.288024085147372, 0, 19, 8.0, 2, 21, 533, 39, 0, 1, 0, 1, 1
45, 8, 4, 14.1519570503002, 0, 23, 10.0, 1, 13, 729, 13, 0, 1, 0, 1, 1
45, 8, 5, 14.054975071503204, 0, 27, 12.0, 1, 22, 1010, 22, 0, 1, 0, 1, 0
45, 8, 6, 13.984605532281053, 0, 24, 11.0, 4, 31, 1047, 66, 0, 1, 0, 1, 1
45, 8, 7, 13.960421547796603, 0, 25, 11.0, 2, 57, 1212, 59, 1, 1, 1, 1, 1
45, 8, 8, 13.836540992277996, 0, 25, 10.0, 2, 24, 1318, 28, 1, 1, 1, 1, 0
45, 8, 9, 13.78022196834465, 0, 21, 9.0, 4, 33, 1394, 98, 1, 1, 1, 1, 0
45, 8, 10, 13.754964274872782, 0, 20, 8.0, 5, 43, 1523, 102, 1, 1, 1, 1, 0
45, 8, 11, 13.680862097080592, 0, 26, 8.0, 7, 69, 1525, 146, 1, 1, 1, 1, 0
45, 9, 3, 7.572970045019787, 2, 19, 8.0, 0, 0, 613, 0, 1, 1, 0, 0, 1
45, 9, 4, 7.4698108561666094, 1, 22, 9.0, 0, 0, 834, 0, 0, 1, 0, 0, 0
45, 9, 5, 7.336815754457209, 0, 23, 10.0, 2, 17, 1062, 20, 0, 1, 0, 1, 1
45, 9, 6, 7.314884446016759, 0, 23, 10.0, 4, 29, 1158, 46, 1, 1, 1, 1, 0
45, 9, 7, 7.267109368707076, 0, 23, 9.0, 3, 82, 1282, 116, 1, 1, 1, 1, 0
45, 9, 8, 7.2353015003780285, 0, 26, 10.0, 8, 31, 1422, 87, 1, 1, 1, 1, 0
45, 9, 9, 7.191432016508701, 0, 21, 8.0, 4, 34, 1457, 102, 1, 1, 1, 1, 0
45, 9, 10, 7.166493215522027, 0, 19, 8.0, 7, 80, 1550, 134, 1, 1, 1, 1, 0
45, 9, 11, 7.161822467174176, 0, 19, 7.0, 8, 72, 1563, 159, 1, 1, 1, 1, 0
45, 10, 3, 13.965585168928532, 1, 23, 9.0, 0, 0, 614, 0, 1, 1, 0, 0, 0
45, 10, 4, 13.825162096565366, 0, 24, 11.0, 3, 24, 868, 68, 1, 1, 1, 1, 0
45, 10, 5, 13.753519220717587, 0, 27, 11.0, 2, 21, 1150, 42, 0, 1, 0, 1, 0
45, 10, 6, 13.524524424765977, 0, 27, 10.0, 6, 38, 1233, 112, 1, 1, 1, 1, 0
45, 10, 7, 13.520305001483862, 0, 27, 10.0, 3, 39, 1415, 70, 0, 1, 0, 1, 1
45, 10, 8, 13.46888559161207, 0, 20, 9.0, 3, 77, 1428, 103, 1, 1, 1, 1, 0
45, 10, 9, 13.357437899031156, 0, 20, 8.0, 6, 70, 1538, 113, 1, 1, 1, 1, 0
45, 10, 10, 13.348195479958987, 0, 20, 7.0, 9, 79, 1596, 182, 1, 1, 1, 1, 0
45, 10, 11, 13.313037978072268, 0, 21, 6.0, 12, 79, 1610, 195, 1, 1, 1, 1, 0
45, 11, 3, 6.569676572684174, 1, 22, 10.0, 0, 0, 755, 0, 1, 1, 0, 0, 0
45, 11, 4, 6.543783093104595, 0, 24, 10.0, 2, 62, 942, 87, 1, 1, 1, 1, 0
45, 11, 5, 6.472951432253404, 0, 30, 11.0, 7, 25, 1186, 43, 0, 1, 0, 1, 1
45, 11, 6, 6.380614370837972, 0, 24, 10.0, 5, 39, 1352, 113, 1, 1, 1, 1, 0
45, 11, 7, 6.354620578899658, 0, 23, 9.0, 3, 63, 1455, 105, 1, 1, 1, 1, 0
45, 11, 8, 6.327373659354485, 0, 22, 8.0, 8, 31, 1515, 99, 1, 1, 1, 1, 0
45, 11, 9, 6.31691817821093, 0, 22, 7.0, 5, 46, 1560, 83, 1, 1, 1, 1, 1
45, 11, 10, 6.29334687287347, 0, 21, 6.0, 11, 68, 1610, 171, 1, 1, 1, 1, 0
45, 11, 11, 6.259197528990415, 0, 18, 5.0, 9, 80, 1645, 208, 1, 1, 1, 1, 0
45, 12, 3, 22.142189016468745, 0, 23, 9.0, 2, 22, 803, 23, 0, 1, 0, 1, 0
45, 12, 4, 21.99446371376622, 0, 28, 12.0, 1, 1, 1024, 1, 0, 1, 0, 1, 1
45, 12, 5, 22.021145321180946, 0, 26, 10.0, 4, 19, 1280, 24, 0, 1, 0, 1, 1
45, 12, 6, 21.74708354655353, 0, 21, 8.0, 5, 41, 1410, 104, 1, 1, 1, 1, 0
45, 12, 7, 21.628216018740417, 0, 22, 8.0, 6, 88, 1491, 140, 1, 1, 1, 1, 1
45, 12, 8, 21.53381753072561, 0, 22, 8.0, 4, 36, 1558, 100, 1, 1, 1, 1, 0
45, 12, 9, 21.50227098750975, 0, 19, 6.0, 9, 33, 1589, 92, 1, 1, 1, 1, 0
45, 12, 10, 21.405622667837374, 0, 15, 5.0, 12, 78, 1656, 226, 1, 1, 1, 1, 0
45, 12, 11, 21.380495871464184, 0, 17, 5.0, 11, 71, 1647, 238, 1, 1, 1, 1, 0
45, 13, 3, 15.868444874454351, 0, 23, 10.0, 1, 9, 876, 9, 0, 1, 0, 1, 0
45, 13, 4, 15.680603376232293, 0, 25, 11.0, 1, 63, 1134, 63, 1, 1, 1, 1, 0
45, 13, 5, 15.612904495278116, 0, 22, 9.0, 8, 17, 1344, 67, 1, 1, 1, 1, 0
45, 13, 6, 15.563725766323655, 0, 24, 8.0, 8, 38, 1380, 122, 1, 1, 1, 1, 0
45, 13, 7, 15.43315473043774, 0, 20, 7.0, 6, 72, 1542, 156, 1, 1, 1, 1, 0
45, 13, 8, 15.342788460268487, 0, 20, 7.0, 4, 63, 1592, 74, 1, 1, 1, 1, 0
45, 13, 9, 15.274985511801594, 0, 19, 6.0, 9, 73, 1620, 168, 1, 1, 1, 1, 0
45, 13, 10, 15.275161555747413, 0, 14, 4.0, 13, 69, 1663, 340, 1, 1, 1, 1, 0
45, 13, 11, 15.236139899688832, 0, 15, 4.0, 14, 160, 1652, 375, 1, 1, 1, 1, 0
45, 14, 3, 8.955575835845428, 0, 20, 10.0, 1, 7, 924, 7, 1, 0, 1, 0, 0
45, 14, 4, 8.915904283065752, 0, 27, 12.0, 4, 31, 1178, 65, 1, 1, 1, 1, 0
45, 14, 5, 8.842141111357101, 0, 22, 9.0, 8, 40, 1396, 117, 1, 1, 1, 1, 0
45, 14, 6, 8.796481160892476, 0, 20, 8.0, 7, 35, 1475, 101, 1, 1, 1, 1, 0
45, 14, 7, 8.729984547575462, 0, 21, 7.0, 7, 89, 1569, 151, 1, 1, 1, 1, 1
45, 14, 8, 8.676882625092448, 0, 19, 6.0, 8, 39, 1615, 139, 1, 1, 1, 1, 0
45, 14, 9, 8.66425352561738, 0, 17, 5.0, 14, 158, 1611, 294, 1, 1, 1, 1, 1
45, 14, 10, 8.647023099973417, 0, 14, 4.0, 15, 74, 1658, 283, 1, 1, 1, 1, 0
45, 14, 11, 8.644253469335432, 0, 17, 4.0, 13, 98, 1660, 347, 1, 1, 1, 1, 0
45, 15, 3, 4.2936031504802, 0, 18, 9.0, 1, 8, 977, 8, 1, 0, 1, 0, 0
45, 15, 4, 4.230523563011258, 0, 25, 10.0, 2, 31, 1169, 60, 1, 1, 1, 1, 0
45, 15, 5, 4.190432575526486, 0, 24, 8.0, 9, 23, 1450, 71, 1, 1, 1, 1, 0
45, 15, 6, 4.159962018041624, 0, 19, 7.0, 9, 72, 1506, 154, 1, 1, 1, 1, 0
45, 15, 7, 4.1650474539148385, 0, 18, 6.0, 9, 116, 1555, 173, 1, 1, 1, 1, 1
45, 15, 8, 4.124137195767046, 0, 19, 6.0, 8, 76, 1641, 138, 1, 1, 1, 1, 0
45, 15, 9, 4.118131454980388, 0, 17, 4.0, 16, 70, 1622, 215, 1, 1, 1, 1, 0
45, 15, 10, 4.109349037134872, 0, 15, 3.0, 13, 163, 1668, 366, 1, 1, 1, 1, 1
45, 15, 11, 4.1075941997751295, 0, 12, 3.0, 15, 155, 1681, 516, 1, 1, 1, 1, 1
45, 16, 3, 29.90213659543918, 0, 23, 11.0, 2, 62, 1049, 90, 1, 1, 1, 1, 0
45, 16, 4, 29.564174436872136, 0, 23, 11.0, 3, 63, 1254, 101, 1, 1, 1, 1, 0
45, 16, 5, 29.36968256089153, 0, 25, 9.0, 9, 33, 1475, 94, 1, 1, 1, 1, 0
45, 16, 6, 29.334485113270183, 0, 20, 7.0, 10, 71, 1511, 169, 1, 1, 1, 1, 0
45, 16, 7, 29.34177170538782, 0, 17, 5.0, 14, 150, 1603, 333, 1, 1, 1, 1, 1
45, 16, 8, 29.224655527773187, 0, 18, 5.0, 10, 64, 1631, 176, 1, 1, 1, 1, 0
45, 16, 9, 29.061909738788582, 0, 19, 5.0, 13, 155, 1663, 363, 1, 1, 1, 1, 1
45, 16, 10, 29.026285719395926, 0, 14, 3.0, 13, 107, 1700, 342, 1, 1, 1, 1, 0
45, 16, 11, 29.014764245033177, 0, 11, 2.0, 15, 84, 1677, 418, 1, 1, 1, 1, 0
45, 17, 3, 26.578348826493702, 0, 23, 10.0, 2, 33, 1093, 43, 1, 1, 1, 1, 0
45, 17, 4, 26.15457181697097, 0, 32, 11.0, 5, 34, 1273, 72, 1, 1, 1, 1, 0
45, 17, 5, 25.846884401753854, 0, 24, 9.0, 7, 30, 1546, 102, 1, 1, 1, 1, 0
45, 17, 6, 25.902702722970417, 0, 21, 7.0, 8, 73, 1534, 178, 1, 1, 1, 1, 0
45, 17, 7, 25.907818394221366, 0, 13, 5.0, 10, 120, 1573, 209, 1, 1, 1, 1, 1
45, 17, 8, 25.74716092299173, 0, 16, 5.0, 10, 119, 1633, 184, 1, 1, 1, 1, 1
45, 17, 9, 25.633807313175573, 0, 17, 4.0, 12, 157, 1657, 285, 1, 1, 1, 1, 1
45, 17, 10, 25.568194907421713, 0, 13, 2.0, 15, 94, 1703, 514, 1, 1, 1, 1, 1
45, 17, 11, 25.546800701040183, 0, 11, 2.0, 16, 124, 1680, 580, 1, 1, 1, 1, 0
45, 18, 3, 22.582675495088676, 0, 20, 10.0, 3, 9, 1060, 17, 1, 1, 1, 1, 0
45, 18, 4, 22.279087657763938, 0, 25, 10.0, 3, 36, 1357, 105, 1, 1, 1, 1, 0
45, 18, 5, 22.07293703513997, 0, 25, 8.0, 12, 25, 1546, 98, 0, 1, 0, 1, 1
45, 18, 6, 22.02315525575057, 0, 21, 6.0, 10, 71, 1536, 219, 1, 1, 1, 1, 0
45, 18, 7, 21.995202942420388, 0, 19, 5.0, 10, 155, 1595, 295, 1, 1, 1, 1, 1
45, 18, 8, 21.918970849941996, 0, 17, 4.0, 10, 118, 1658, 225, 1, 1, 1, 1, 1
45, 18, 9, 21.78561919832524, 0, 19, 3.0, 15, 158, 1648, 464, 1, 1, 1, 1, 1
45, 18, 10, 21.78930856143173, 0, 12, 2.0, 15, 188, 1672, 690, 1, 1, 1, 1, 1
45, 18, 11, 21.758207386062075, 0, 13, 2.0, 15, 190, 1698, 782, 1, 1, 1, 1, 1
45, 19, 3, 18.14500778130248, 0, 23, 10.0, 4, 30, 1150, 78, 1, 1, 1, 1, 0
45, 19, 4, 17.874400713981146, 0, 24, 9.0, 1, 37, 1341, 37, 1, 1, 1, 1, 0
45, 19, 5, 17.75550524963956, 0, 21, 7.0, 10, 36, 1578, 158, 1, 1, 1, 1, 0
45, 19, 6, 17.740080562344406, 0, 20, 6.0, 10, 70, 1575, 248, 1, 1, 1, 1, 0
45, 19, 7, 17.724119352003434, 0, 17, 5.0, 9, 154, 1607, 283, 1, 1, 1, 1, 1
45, 19, 8, 17.69246592849, 0, 14, 3.0, 15, 67, 1629, 279, 1, 1, 1, 1, 0
45, 19, 9, 17.584968880559916, 0, 18, 3.0, 19, 161, 1654, 442, 1, 1, 1, 1, 1
45, 19, 10, 17.55194812213424, 0, 10, 2.0, 17, 82, 1690, 622, 1, 1, 1, 1, 0
45, 19, 11, 17.550538248024615, 0, 11, 1.0, 15, 162, 1682, 715, 1, 1, 1, 1, 1
50, 3, 3, 25.49166833158305, 2, 10, 6.0, 0, 0, 130, 0, 0, 1, 0, 0, 1
50, 3, 4, 24.950909603176978, 1, 13, 6.0, 0, 0, 160, 0, 0, 1, 0, 0, 1
50, 3, 5, 24.60126294103962, 1, 15, 8.0, 0, 0, 306, 0, 0, 1, 0, 0, 1
50, 3, 6, 24.238559588041674, 1, 18, 8.0, 0, 0, 338, 0, 0, 1, 0, 0, 1
50, 3, 7, 24.22877408795, 1, 22, 9.0, 0, 0, 431, 0, 0, 1, 0, 0, 1
50, 3, 8, 24.116623265663403, 0, 18, 8.0, 2, 6, 443, 12, 0, 1, 0, 1, 1
50, 3, 9, 24.20896766969904, 1, 22, 10.0, 0, 0, 515, 0, 0, 1, 0, 0, 1
50, 3, 10, 24.231441501710982, 0, 20, 10.0, 1, 4, 575, 4, 0, 1, 0, 1, 1
50, 3, 11, 24.298062092699837, 0, 22, 11.0, 1, 4, 654, 4, 0, 1, 0, 1, 1
50, 4, 3, 20.30870260359722, 1, 12, 7.0, 0, 0, 236, 0, 0, 1, 0, 0, 1
50, 4, 4, 19.59152194722127, 1, 15, 7.0, 0, 0, 312, 0, 0, 1, 0, 0, 1
50, 4, 5, 19.822629381343482, 0, 18, 8.0, 1, 8, 407, 8, 0, 1, 0, 1, 1
50, 4, 6, 19.932842906785925, 0, 17, 9.0, 2, 9, 471, 17, 0, 1, 0, 1, 1
50, 4, 7, 19.66200660443091, 1, 24, 11.0, 0, 0, 669, 0, 0, 1, 0, 0, 0
50, 4, 8, 19.45702839188313, 0, 24, 11.0, 1, 8, 767, 8, 0, 1, 0, 1, 1
50, 4, 9, 19.548604284386418, 1, 23, 11.0, 0, 0, 789, 0, 0, 1, 0, 0, 0
50, 4, 10, 19.400636660405144, 0, 23, 11.0, 1, 8, 951, 8, 0, 1, 0, 1, 1
50, 4, 11, 19.241737512775206, 0, 24, 12.0, 1, 10, 1000, 10, 0, 1, 0, 1, 0
50, 5, 3, 16.01785383284097, 1, 11, 6.0, 0, 0, 275, 0, 0, 1, 0, 0, 1
50, 5, 4, 15.949958767319, 1, 18, 8.0, 0, 0, 439, 0, 0, 1, 0, 0, 1
50, 5, 5, 16.149318809869612, 0, 22, 11.0, 1, 9, 627, 9, 0, 1, 0, 1, 1
50, 5, 6, 15.939911230870022, 0, 25, 12.0, 1, 7, 690, 7, 0, 1, 0, 1, 1
50, 5, 7, 15.864715029607298, 0, 24, 11.0, 2, 17, 849, 19, 1, 1, 1, 1, 0
50, 5, 8, 15.620856281029882, 0, 23, 11.0, 1, 13, 938, 13, 0, 1, 0, 1, 0
50, 5, 9, 15.543674316231286, 0, 27, 13.0, 1, 6, 1052, 6, 0, 1, 0, 1, 0
50, 5, 10, 15.464505410373041, 0, 26, 12.0, 1, 12, 1184, 12, 0, 1, 0, 1, 0
50, 5, 11, 15.425156029959762, 0, 25, 11.0, 3, 14, 1198, 27, 1, 1, 1, 1, 0
50, 6, 3, 13.944810588873768, 0, 16, 7.0, 1, 6, 361, 6, 0, 1, 0, 1, 0
50, 6, 4, 13.98856524825607, 2, 23, 10.0, 0, 0, 511, 0, 0, 1, 0, 0, 1
50, 6, 5, 13.948484257657542, 0, 22, 10.0, 1, 9, 739, 9, 0, 1, 0, 1, 1
50, 6, 6, 13.77209506026503, 0, 23, 10.0, 2, 10, 828, 17, 0, 1, 0, 1, 0
50, 6, 7, 13.822098892801401, 1, 23, 12.0, 0, 0, 1031, 0, 1, 0, 0, 0, 0
50, 6, 8, 13.676112780666681, 0, 28, 13.0, 1, 16, 1144, 16, 0, 1, 0, 1, 0
50, 6, 9, 13.639801275892207, 0, 27, 13.0, 1, 13, 1278, 13, 0, 1, 0, 1, 1
50, 6, 10, 13.506737099389737, 0, 29, 13.0, 2, 16, 1374, 29, 0, 1, 0, 1, 0
50, 6, 11, 13.48086393711381, 0, 27, 12.0, 3, 22, 1403, 45, 1, 1, 1, 1, 0
50, 7, 3, 11.684184052880788, 1, 17, 9.0, 0, 0, 457, 0, 1, 1, 0, 0, 0
50, 7, 4, 11.45308439643531, 1, 22, 10.0, 0, 0, 648, 0, 0, 1, 0, 0, 1
50, 7, 5, 11.481672252901665, 0, 25, 12.0, 1, 15, 863, 15, 0, 1, 0, 1, 1
50, 7, 6, 11.525258593111602, 0, 24, 12.0, 1, 12, 976, 12, 0, 1, 0, 1, 0
50, 7, 7, 11.409865990899531, 0, 26, 13.0, 1, 18, 1186, 18, 0, 1, 0, 1, 0
50, 7, 8, 11.389960691982488, 0, 28, 12.0, 1, 15, 1314, 15, 0, 1, 0, 1, 1
50, 7, 9, 11.343308088873851, 0, 27, 12.0, 3, 18, 1376, 51, 1, 1, 1, 1, 0
50, 7, 10, 11.265461903968717, 0, 23, 10.0, 1, 69, 1567, 69, 1, 1, 1, 1, 0
50, 7, 11, 11.22494898567484, 0, 25, 10.0, 3, 19, 1534, 40, 1, 1, 1, 1, 0
50, 8, 3, 11.166906166105155, 1, 21, 9.0, 0, 0, 554, 0, 1, 1, 0, 0, 0
50, 8, 4, 10.907894240179546, 1, 23, 11.0, 0, 0, 719, 0, 1, 1, 0, 0, 1
50, 8, 5, 10.770827145791364, 0, 31, 14.0, 2, 8, 1119, 15, 0, 1, 0, 1, 0
50, 8, 6, 10.80841322175436, 0, 26, 11.0, 2, 65, 1121, 82, 1, 1, 1, 1, 0
50, 8, 7, 10.766093380516171, 0, 28, 13.0, 2, 111, 1335, 135, 1, 1, 1, 1, 1
50, 8, 8, 10.754599682441656, 0, 28, 12.0, 1, 15, 1364, 15, 0, 1, 0, 1, 0
50, 8, 9, 10.706661295034518, 0, 22, 10.0, 2, 21, 1441, 37, 1, 1, 1, 1, 0
50, 8, 10, 10.61420675017318, 0, 25, 9.0, 2, 17, 1657, 33, 0, 1, 0, 1, 0
50, 8, 11, 10.605686806724016, 0, 25, 9.0, 3, 81, 1599, 120, 1, 1, 1, 1, 0
50, 9, 3, 15.359758675167566, 0, 22, 9.0, 1, 5, 606, 5, 0, 1, 0, 1, 1
50, 9, 4, 15.047141582929372, 1, 28, 12.0, 0, 0, 869, 0, 0, 1, 0, 0, 0
50, 9, 5, 14.989967913976255, 0, 27, 13.0, 2, 12, 1168, 21, 1, 1, 1, 1, 0
50, 9, 6, 14.887675002407505, 0, 24, 11.0, 3, 34, 1208, 75, 1, 1, 1, 1, 0
50, 9, 7, 14.954590770316456, 0, 28, 12.0, 3, 35, 1350, 82, 1, 1, 1, 1, 0
50, 9, 8, 14.866206319307091, 0, 27, 11.0, 1, 14, 1449, 14, 1, 0, 1, 0, 0
50, 9, 9, 14.815812836979358, 0, 22, 10.0, 2, 65, 1524, 87, 1, 1, 1, 1, 0
50, 9, 10, 14.793081802953546, 0, 24, 8.0, 2, 114, 1651, 149, 1, 1, 1, 1, 1
50, 9, 11, 14.69337576669855, 0, 26, 8.0, 4, 71, 1660, 116, 1, 1, 1, 1, 0
50, 10, 3, 8.020869380671943, 1, 20, 10.0, 0, 0, 691, 0, 0, 1, 0, 0, 0
50, 10, 4, 7.915179763893208, 0, 27, 12.0, 1, 1, 911, 1, 0, 1, 0, 1, 0
50, 10, 5, 7.8372527810459385, 0, 26, 12.0, 2, 23, 1226, 41, 0, 1, 0, 1, 1
50, 10, 6, 7.781938788256402, 0, 34, 13.0, 3, 24, 1298, 42, 1, 1, 1, 1, 0
50, 10, 7, 7.773542650617713, 0, 30, 11.0, 3, 26, 1451, 68, 1, 1, 1, 1, 0
50, 10, 8, 7.743729321895569, 0, 24, 10.0, 1, 140, 1510, 140, 1, 1, 1, 1, 1
50, 10, 9, 7.705720778688544, 0, 24, 9.0, 4, 31, 1597, 67, 1, 1, 1, 1, 0
50, 10, 10, 7.696506098035597, 0, 20, 7.0, 3, 139, 1708, 179, 1, 1, 1, 1, 1
50, 10, 11, 7.67125848132363, 0, 21, 8.0, 6, 43, 1696, 96, 1, 1, 1, 1, 1
50, 11, 3, 17.14175743285008, 0, 21, 11.0, 2, 14, 707, 28, 0, 1, 0, 1, 0
50, 11, 4, 16.948060752355218, 0, 27, 13.0, 2, 10, 1038, 15, 1, 1, 1, 1, 0
50, 11, 5, 16.99439683398342, 0, 28, 12.0, 2, 14, 1321, 27, 0, 1, 0, 1, 1
50, 11, 6, 16.838042556236424, 0, 29, 11.0, 4, 38, 1396, 81, 1, 1, 1, 1, 0
50, 11, 7, 16.76013274564992, 0, 24, 10.0, 2, 57, 1521, 88, 1, 1, 1, 1, 1
50, 11, 8, 16.727367102375258, 0, 27, 10.0, 2, 139, 1618, 169, 1, 1, 1, 1, 1
50, 11, 9, 16.639077673065056, 0, 22, 9.0, 3, 77, 1629, 116, 1, 1, 1, 1, 1
50, 11, 10, 16.55315898519999, 0, 21, 6.0, 6, 43, 1715, 117, 1, 1, 1, 1, 1
50, 11, 11, 16.560606383256182, 0, 20, 6.0, 6, 149, 1732, 224, 1, 1, 1, 1, 1
50, 12, 3, 8.436897164628316, 0, 23, 11.0, 1, 17, 831, 17, 0, 1, 0, 1, 1
50, 12, 4, 8.317177393050093, 0, 28, 13.0, 2, 22, 1038, 41, 0, 1, 0, 1, 1
50, 12, 5, 8.206812240682357, 0, 26, 12.0, 2, 19, 1394, 34, 1, 1, 1, 1, 0
50, 12, 6, 8.189463628918544, 0, 23, 10.0, 4, 66, 1465, 99, 1, 1, 1, 1, 0
50, 12, 7, 8.124202455899212, 0, 24, 9.0, 2, 83, 1608, 105, 1, 1, 1, 1, 1
50, 12, 8, 8.09339930642769, 0, 23, 9.0, 2, 140, 1633, 167, 1, 1, 1, 1, 1
50, 12, 9, 8.04879560035292, 0, 22, 8.0, 4, 32, 1686, 92, 1, 1, 1, 1, 0
50, 12, 10, 8.029907006717952, 0, 21, 6.0, 3, 154, 1746, 195, 1, 1, 1, 1, 1
50, 12, 11, 8.02167228881173, 0, 16, 5.0, 11, 115, 1745, 226, 1, 1, 1, 1, 1
50, 13, 3, 27.775056158674833, 1, 23, 11.0, 0, 0, 848, 0, 1, 1, 0, 0, 1
50, 13, 4, 27.647991850820034, 0, 28, 13.0, 1, 2, 1122, 2, 1, 0, 1, 0, 0
50, 13, 5, 27.506640855230106, 0, 25, 11.0, 2, 17, 1472, 32, 1, 1, 1, 1, 0
50, 13, 6, 27.345352235704837, 0, 26, 10.0, 5, 30, 1521, 88, 1, 1, 1, 1, 0
50, 13, 7, 27.286479488874985, 0, 23, 9.0, 3, 37, 1652, 100, 1, 1, 1, 1, 0
50, 13, 8, 27.2264921019236, 0, 25, 8.0, 4, 110, 1694, 154, 1, 1, 1, 1, 1
50, 13, 9, 27.120819806087567, 0, 21, 7.0, 5, 112, 1709, 159, 1, 1, 1, 1, 1
50, 13, 10, 27.069276849848716, 0, 17, 4.0, 9, 101, 1764, 250, 1, 1, 1, 1, 0
50, 13, 11, 27.012811505666534, 0, 14, 4.0, 10, 81, 1748, 178, 1, 1, 1, 1, 1
50, 14, 3, 21.683598207018118, 0, 24, 12.0, 1, 21, 946, 21, 0, 1, 0, 1, 1
50, 14, 4, 21.385410671974658, 0, 30, 13.0, 2, 20, 1223, 26, 0, 1, 0, 1, 0
50, 14, 5, 21.387772464300955, 0, 23, 10.0, 3, 25, 1482, 56, 1, 1, 1, 1, 0
50, 14, 6, 21.29052342575205, 0, 23, 9.0, 4, 70, 1555, 115, 1, 1, 1, 1, 0
50, 14, 7, 21.121356263549117, 0, 22, 7.0, 5, 68, 1675, 126, 1, 1, 1, 1, 0
50, 14, 8, 21.1262804228931, 0, 21, 7.0, 3, 138, 1665, 182, 1, 1, 1, 1, 1
50, 14, 9, 21.058781302438234, 0, 21, 6.0, 8, 72, 1730, 154, 1, 1, 1, 1, 0
50, 14, 10, 20.997065353030255, 0, 15, 4.0, 12, 76, 1751, 181, 1, 1, 1, 1, 0
50, 14, 11, 20.973084272545876, 0, 15, 3.0, 14, 144, 1764, 426, 1, 1, 1, 1, 1
50, 15, 3, 14.462800405371016, 0, 23, 11.0, 1, 22, 956, 22, 0, 1, 0, 1, 1
50, 15, 4, 14.433232965355646, 0, 26, 12.0, 1, 61, 1219, 61, 1, 1, 1, 1, 0
50, 15, 5, 14.332062241853906, 0, 25, 10.0, 3, 40, 1532, 68, 1, 1, 1, 1, 1
50, 15, 6, 14.275494028145244, 0, 22, 8.0, 5, 82, 1555, 116, 1, 1, 1, 1, 1
50, 15, 7, 14.204342007810377, 0, 16, 7.0, 3, 94, 1681, 125, 1, 1, 1, 1, 1
50, 15, 8, 14.148645420638744, 0, 22, 7.0, 2, 145, 1718, 168, 1, 1, 1, 1, 1
50, 15, 9, 14.1722053666151, 0, 21, 6.0, 3, 140, 1712, 186, 1, 1, 1, 1, 1
50, 15, 10, 14.118538731954846, 0, 13, 3.0, 10, 57, 1770, 161, 1, 1, 1, 1, 1
50, 15, 11, 14.126663968582157, 0, 12, 3.0, 12, 188, 1752, 436, 1, 1, 1, 1, 1
50, 16, 3, 7.277927596628175, 0, 24, 12.0, 1, 13, 1067, 13, 0, 1, 0, 1, 1
50, 16, 4, 7.144307917288228, 0, 27, 12.0, 1, 59, 1265, 59, 1, 1, 1, 1, 0
50, 16, 5, 7.0890514337761505, 0, 25, 10.0, 1, 11, 1630, 11, 0, 1, 0, 1, 0
50, 16, 6, 7.110147500666316, 0, 23, 9.0, 5, 82, 1590, 137, 1, 1, 1, 1, 0
50, 16, 7, 7.065609067472544, 0, 16, 6.0, 5, 70, 1706, 181, 1, 1, 1, 1, 0
50, 16, 8, 7.026746981876026, 0, 27, 6.0, 8, 143, 1723, 265, 1, 1, 1, 1, 1
50, 16, 9, 7.024966956905613, 0, 19, 5.0, 6, 180, 1742, 241, 1, 1, 1, 1, 1
50, 16, 10, 7.011097666646936, 0, 12, 3.0, 12, 105, 1770, 304, 1, 1, 1, 1, 0
50, 16, 11, 7.01341799742909, 0, 14, 3.0, 12, 200, 1756, 495, 1, 1, 1, 1, 1
50, 17, 3, 37.21655112801385, 0, 25, 11.0, 1, 6, 1073, 6, 1, 0, 1, 0, 0
50, 17, 4, 36.65788388341977, 0, 23, 11.0, 2, 5, 1310, 9, 1, 1, 1, 1, 0
50, 17, 5, 36.43048022461714, 0, 23, 9.0, 4, 29, 1606, 55, 1, 1, 1, 1, 0
50, 17, 6, 36.467103242442136, 0, 22, 8.0, 7, 98, 1624, 160, 1, 1, 1, 1, 0
50, 17, 7, 36.36519552843768, 0, 16, 6.0, 5, 89, 1714, 178, 1, 1, 1, 1, 1
50, 17, 8, 36.23149536694083, 0, 18, 6.0, 5, 41, 1748, 85, 1, 1, 1, 1, 0
50, 17, 9, 36.183802369548296, 0, 17, 5.0, 5, 185, 1754, 286, 1, 1, 1, 1, 1
50, 17, 10, 36.14814722180829, 0, 13, 2.0, 11, 188, 1764, 514, 1, 1, 1, 1, 1
50, 17, 11, 36.11552572107709, 0, 12, 2.0, 15, 182, 1757, 584, 1, 1, 1, 1, 1
50, 18, 3, 33.916631832488534, 0, 28, 11.0, 1, 29, 1135, 29, 1, 1, 1, 1, 0
50, 18, 4, 33.3232741681816, 0, 24, 11.0, 2, 59, 1409, 84, 1, 1, 1, 1, 0
50, 18, 5, 33.311775729162754, 0, 22, 8.0, 3, 96, 1648, 123, 1, 1, 1, 1, 0
50, 18, 6, 33.24621669398233, 0, 21, 7.0, 9, 76, 1643, 174, 1, 1, 1, 1, 0
50, 18, 7, 33.24205993555725, 0, 19, 5.0, 5, 185, 1717, 266, 1, 1, 1, 1, 1
50, 18, 8, 33.11426743463116, 0, 21, 5.0, 6, 145, 1745, 242, 1, 1, 1, 1, 1
50, 18, 9, 33.06909165768907, 0, 16, 4.0, 5, 181, 1740, 261, 1, 1, 1, 1, 1
50, 18, 10, 33.02270991350291, 0, 9, 2.0, 15, 220, 1757, 614, 1, 1, 1, 1, 1
50, 18, 11, 33.001990763808706, 0, 9, 1.0, 16, 179, 1746, 800, 1, 1, 1, 1, 1
50, 19, 3, 30.231672290285985, 0, 25, 12.0, 3, 18, 1172, 44, 1, 1, 1, 1, 0
50, 19, 4, 29.84374919242729, 0, 30, 12.0, 2, 64, 1435, 88, 1, 1, 1, 1, 0
50, 19, 5, 29.761779138919326, 0, 24, 8.0, 4, 25, 1679, 64, 1, 1, 1, 1, 0
50, 19, 6, 29.782970098155058, 0, 19, 6.0, 9, 92, 1632, 236, 1, 1, 1, 1, 0
50, 19, 7, 29.7411268845092, 0, 14, 5.0, 6, 149, 1741, 227, 1, 1, 1, 1, 1
50, 19, 8, 29.6173517724757, 0, 16, 5.0, 7, 152, 1753, 236, 1, 1, 1, 1, 1
50, 19, 9, 29.574456344120215, 0, 18, 4.0, 12, 148, 1750, 373, 1, 1, 1, 1, 1
50, 19, 10, 29.566534458460985, 0, 9, 1.0, 14, 223, 1748, 737, 1, 1, 1, 1, 1
50, 19, 11, 29.51853847733521, 0, 10, 2.0, 14, 191, 1766, 705, 1, 1, 1, 1, 1
55, 3, 3, 28.435224638543776, 3, 13, 6.0, 0, 0, 154, 0, 0, 1, 0, 0, 1
55, 3, 4, 27.845311635427652, 3, 16, 8.0, 0, 0, 153, 0, 0, 1, 0, 0, 1
55, 3, 5, 27.490960985484953, 2, 18, 9.0, 0, 0, 359, 0, 0, 1, 0, 0, 1
55, 3, 6, 27.468883078492244, 2, 17, 9.0, 0, 0, 320, 0, 0, 1, 0, 0, 1
55, 3, 7, 27.52790295106572, 1, 19, 8.0, 0, 0, 369, 0, 0, 1, 0, 0, 1
55, 3, 8, 27.163342470589086, 2, 17, 10.0, 0, 0, 451, 0, 0, 1, 0, 0, 1
55, 3, 9, 27.342960934699576, 2, 20, 10.0, 0, 0, 539, 0, 0, 1, 0, 0, 1
55, 3, 10, 27.179128996087293, 3, 26, 13.0, 0, 0, 642, 0, 0, 1, 0, 0, 1
55, 3, 11, 27.346621965462084, 2, 22, 10.0, 0, 0, 581, 0, 0, 1, 0, 0, 1
55, 4, 3, 23.508221332780884, 2, 14, 7.0, 0, 0, 215, 0, 0, 1, 0, 0, 1
55, 4, 4, 22.830822311834005, 3, 17, 8.0, 0, 0, 358, 0, 0, 1, 0, 0, 1
55, 4, 5, 23.158289475969045, 2, 17, 9.0, 0, 0, 476, 0, 0, 1, 0, 0, 1
55, 4, 6, 22.89430532331444, 2, 23, 11.0, 0, 0, 540, 0, 1, 0, 0, 0, 1
55, 4, 7, 22.911689731070137, 2, 24, 11.0, 0, 0, 662, 0, 0, 1, 0, 0, 0
55, 4, 8, 22.602477570750015, 0, 27, 12.0, 1, 1, 789, 1, 0, 1, 0, 1, 0
55, 4, 9, 22.561086336190538, 1, 29, 14.0, 0, 0, 859, 0, 0, 1, 0, 0, 0
55, 4, 10, 22.49807963489663, 1, 26, 14.0, 0, 0, 950, 0, 0, 1, 0, 0, 1
55, 4, 11, 22.323786708301434, 2, 26, 13.0, 0, 0, 1034, 0, 1, 1, 0, 0, 0
55, 5, 3, 18.728740934360193, 2, 14, 7.0, 0, 0, 308, 0, 0, 1, 0, 0, 1
55, 5, 4, 18.837693118629772, 2, 20, 10.0, 0, 0, 445, 0, 0, 1, 0, 0, 1
55, 5, 5, 18.633807207609244, 2, 23, 12.0, 0, 0, 596, 0, 0, 1, 0, 0, 1
55, 5, 6, 18.546289992573104, 0, 25, 12.0, 1, 6, 709, 6, 0, 1, 0, 1, 1
55, 5, 7, 18.431808549562056, 1, 25, 12.0, 0, 0, 854, 0, 1, 0, 0, 0, 0
55, 5, 8, 18.39035984189022, 1, 26, 13.0, 0, 0, 984, 0, 0, 1, 0, 0, 1
55, 5, 9, 18.30166177997029, 1, 30, 15.0, 0, 0, 1123, 0, 0, 1, 0, 0, 1
55, 5, 10, 18.024328236474872, 1, 27, 14.0, 0, 0, 1250, 0, 0, 1, 0, 0, 0
55, 5, 11, 18.055173663643163, 0, 24, 13.0, 1, 1, 1281, 1, 0, 1, 0, 1, 0
55, 6, 3, 15.865472956811086, 1, 18, 9.0, 0, 0, 367, 0, 0, 1, 0, 0, 0
55, 6, 4, 15.908187391139974, 2, 22, 12.0, 0, 0, 529, 0, 0, 1, 0, 0, 1
55, 6, 5, 15.645781997212353, 2, 26, 12.0, 0, 0, 762, 0, 0, 1, 0, 0, 1
55, 6, 6, 15.762278933912292, 2, 25, 12.0, 0, 0, 875, 0, 0, 1, 0, 0, 1
55, 6, 7, 15.594801144749546, 1, 30, 15.0, 0, 0, 1061, 0, 1, 1, 0, 0, 0
55, 6, 8, 15.539269946832434, 1, 30, 15.0, 0, 0, 1125, 0, 0, 1, 0, 0, 1
55, 6, 9, 15.40706586909489, 0, 32, 15.0, 1, 10, 1326, 10, 0, 1, 0, 1, 0
55, 6, 10, 15.288042406216318, 0, 28, 13.0, 2, 6, 1474, 11, 0, 1, 0, 1, 0
55, 6, 11, 15.301213040059604, 0, 30, 13.0, 3, 11, 1471, 23, 1, 1, 1, 1, 0
55, 7, 3, 19.82603471452619, 1, 19, 10.0, 0, 0, 452, 0, 1, 0, 0, 0, 0
55, 7, 4, 19.375939064456844, 2, 27, 13.0, 0, 0, 626, 0, 1, 0, 0, 0, 0
55, 7, 5, 19.55618098958969, 1, 27, 14.0, 0, 0, 981, 0, 0, 1, 0, 0, 1
55, 7, 6, 19.557457333866825, 1, 23, 12.0, 0, 0, 964, 0, 0, 1, 0, 0, 0
55, 7, 7, 19.49810293193773, 1, 30, 14.0, 0, 0, 1205, 0, 1, 1, 0, 0, 0
55, 7, 8, 19.199183301525604, 0, 33, 16.0, 1, 10, 1336, 10, 1, 0, 1, 0, 0
55, 7, 9, 19.1046115296434, 0, 33, 15.0, 2, 11, 1454, 15, 1, 1, 1, 1, 0
55, 7, 10, 19.055979893244686, 0, 29, 13.0, 1, 2, 1632, 2, 1, 0, 1, 0, 0
55, 7, 11, 19.00600746682731, 0, 29, 11.0, 3, 12, 1604, 22, 0, 1, 0, 1, 0
55, 8, 3, 21.48053268580638, 1, 25, 10.0, 0, 0, 563, 0, 1, 1, 0, 0, 1
55, 8, 4, 21.085573553955697, 1, 23, 12.0, 0, 0, 736, 0, 1, 0, 0, 0, 1
55, 8, 5, 20.829492333832146, 1, 30, 15.0, 0, 0, 1121, 0, 0, 1, 0, 0, 0
55, 8, 6, 20.896899824155856, 1, 33, 15.0, 0, 0, 1176, 0, 0, 1, 0, 0, 0
55, 8, 7, 20.83775470433823, 0, 31, 13.0, 1, 14, 1358, 14, 0, 1, 0, 1, 0
55, 8, 8, 20.671466027848275, 0, 31, 15.0, 2, 14, 1427, 22, 1, 1, 1, 1, 0
55, 8, 9, 20.59254665982072, 0, 26, 13.0, 2, 10, 1574, 17, 1, 1, 1, 1, 0
55, 8, 10, 20.523898251688298, 0, 22, 10.0, 3, 17, 1693, 29, 1, 1, 1, 1, 0
55, 8, 11, 20.467214262836524, 0, 31, 11.0, 3, 8, 1718, 17, 1, 1, 1, 1, 0
55, 9, 3, 10.679009141333221, 1, 19, 10.0, 0, 0, 619, 0, 0, 1, 0, 0, 1
55, 9, 4, 10.678275188324497, 1, 29, 13.0, 0, 0, 875, 0, 0, 1, 0, 0, 0
55, 9, 5, 10.536210203967526, 0, 24, 13.0, 1, 13, 1205, 13, 1, 0, 1, 0, 0
55, 9, 6, 10.455652316100263, 0, 26, 13.0, 1, 6, 1274, 6, 1, 0, 1, 0, 0
55, 9, 7, 10.482964104253393, 0, 29, 13.0, 2, 18, 1465, 36, 1, 1, 1, 1, 0
55, 9, 8, 10.452495889742067, 0, 32, 14.0, 1, 25, 1537, 25, 1, 0, 1, 0, 0
55, 9, 9, 10.466752352269921, 0, 33, 13.0, 3, 13, 1587, 35, 1, 1, 1, 1, 0
55, 9, 10, 10.423027630168018, 0, 24, 10.0, 2, 58, 1751, 70, 1, 1, 1, 1, 0
55, 9, 11, 10.410068462857382, 0, 29, 9.0, 3, 67, 1735, 94, 1, 1, 1, 1, 0
55, 10, 3, 16.393932170336875, 0, 24, 11.0, 1, 24, 693, 24, 1, 1, 1, 1, 0
55, 10, 4, 16.026907187079367, 1, 29, 14.0, 0, 0, 915, 0, 0, 1, 0, 0, 1
55, 10, 5, 16.213101781008653, 1, 30, 15.0, 0, 0, 1320, 0, 0, 1, 0, 0, 1
55, 10, 6, 15.960616732383151, 0, 30, 13.0, 3, 17, 1402, 44, 0, 1, 0, 1, 1
55, 10, 7, 15.949197594048002, 0, 25, 11.0, 2, 21, 1544, 37, 1, 1, 1, 1, 0
55, 10, 8, 15.903665189834657, 0, 33, 12.0, 2, 78, 1580, 96, 1, 1, 1, 1, 0
55, 10, 9, 15.863181848139075, 0, 27, 11.0, 2, 139, 1683, 157, 1, 1, 1, 1, 1
55, 10, 10, 15.894968468381965, 0, 23, 8.0, 4, 37, 1767, 79, 1, 1, 1, 1, 0
55, 10, 11, 15.823768266520931, 0, 25, 8.0, 4, 39, 1779, 70, 1, 1, 1, 1, 0
55, 11, 3, 8.551574210836609, 2, 23, 11.0, 0, 0, 767, 0, 0, 1, 0, 0, 0
55, 11, 4, 8.451956131896463, 1, 26, 14.0, 0, 0, 1046, 0, 1, 1, 0, 0, 0
55, 11, 5, 8.340055197550837, 1, 25, 12.0, 0, 0, 1413, 0, 1, 1, 0, 0, 1
55, 11, 6, 8.357691953547647, 0, 33, 14.0, 2, 9, 1485, 11, 1, 1, 1, 1, 0
55, 11, 7, 8.282288774963437, 0, 28, 12.0, 2, 134, 1622, 147, 1, 1, 1, 1, 1
55, 11, 8, 8.29923767001801, 0, 32, 11.0, 3, 66, 1624, 87, 1, 1, 1, 1, 1
55, 11, 9, 8.272734059482705, 0, 24, 10.0, 3, 37, 1744, 71, 1, 1, 1, 1, 0
55, 11, 10, 8.246852301516169, 0, 19, 7.0, 1, 84, 1821, 84, 1, 1, 1, 1, 1
55, 11, 11, 8.235757708178335, 0, 21, 7.0, 6, 68, 1800, 108, 1, 1, 1, 1, 1
55, 12, 3, 20.866238590965427, 0, 24, 12.0, 1, 25, 832, 25, 1, 1, 1, 1, 0
55, 12, 4, 20.522922703871366, 0, 27, 14.0, 1, 2, 1124, 2, 1, 0, 1, 0, 0
55, 12, 5, 20.45126987007904, 0, 29, 14.0, 2, 8, 1520, 14, 0, 1, 0, 1, 1
55, 12, 6, 20.512247103975646, 0, 27, 12.0, 3, 14, 1544, 34, 0, 1, 0, 1, 1
55, 12, 7, 20.413503393407414, 0, 26, 9.0, 2, 80, 1679, 90, 1, 1, 1, 1, 1
55, 12, 8, 20.324227277056405, 0, 24, 10.0, 3, 24, 1707, 45, 1, 1, 1, 1, 0
55, 12, 9, 20.26276004564309, 0, 27, 9.0, 5, 59, 1735, 121, 1, 1, 1, 1, 0
55, 12, 10, 20.22955567329496, 0, 18, 7.0, 3, 77, 1821, 115, 1, 1, 1, 1, 1
55, 12, 11, 20.18783548022045, 0, 20, 6.0, 5, 34, 1828, 83, 1, 1, 1, 1, 0
55, 13, 3, 11.199041505601965, 1, 26, 13.0, 0, 0, 898, 0, 1, 1, 0, 0, 0
55, 13, 4, 10.987254671090385, 0, 32, 15.0, 1, 10, 1181, 10, 0, 1, 0, 1, 1
55, 13, 5, 10.852563471045903, 1, 26, 13.0, 0, 0, 1611, 0, 1, 1, 0, 0, 1
55, 13, 6, 10.860696735323172, 0, 27, 11.0, 2, 36, 1569, 39, 1, 1, 1, 1, 0
55, 13, 7, 10.79913700317381, 0, 24, 9.0, 3, 65, 1741, 99, 1, 1, 1, 1, 0
55, 13, 8, 10.75967242700508, 0, 26, 10.0, 2, 140, 1712, 156, 1, 1, 1, 1, 1
55, 13, 9, 10.758041922950603, 0, 21, 8.0, 2, 62, 1778, 77, 1, 1, 1, 1, 0
55, 13, 10, 10.707461183906585, 0, 17, 5.0, 6, 38, 1844, 107, 1, 1, 1, 1, 0
55, 13, 11, 10.704344070333255, 0, 16, 4.0, 9, 180, 1840, 312, 1, 1, 1, 1, 1
55, 14, 3, 33.69837826642053, 1, 23, 12.0, 0, 0, 1000, 0, 1, 1, 0, 0, 0
55, 14, 4, 33.49871157966713, 0, 33, 15.0, 1, 28, 1199, 28, 1, 1, 1, 1, 0
55, 14, 5, 33.42792014652454, 0, 27, 12.0, 3, 32, 1567, 68, 1, 1, 1, 1, 0
55, 14, 6, 33.238768127607294, 0, 26, 10.0, 3, 40, 1676, 63, 1, 1, 1, 1, 0
55, 14, 7, 33.18211164599984, 0, 23, 8.0, 3, 63, 1762, 110, 1, 1, 1, 1, 0
55, 14, 8, 33.05224786676054, 0, 23, 8.0, 4, 164, 1766, 202, 1, 1, 1, 1, 1
55, 14, 9, 32.959759583044175, 0, 23, 8.0, 3, 56, 1827, 99, 1, 1, 1, 1, 1
55, 14, 10, 32.97635581356613, 0, 14, 4.0, 7, 66, 1817, 147, 1, 1, 1, 1, 0
55, 14, 11, 32.933904312593974, 0, 16, 5.0, 7, 176, 1838, 283, 1, 1, 1, 1, 1
55, 15, 3, 27.73766607622524, 0, 27, 13.0, 1, 3, 1086, 3, 0, 1, 0, 1, 1
55, 15, 4, 27.495416407214417, 0, 33, 15.0, 1, 34, 1338, 34, 1, 1, 1, 1, 0
55, 15, 5, 27.563419079400425, 0, 26, 11.0, 2, 90, 1575, 104, 1, 1, 1, 1, 0
55, 15, 6, 27.303671460272554, 0, 26, 10.0, 5, 71, 1695, 100, 1, 1, 1, 1, 0
55, 15, 7, 27.281764063542536, 0, 19, 7.0, 4, 108, 1749, 144, 1, 1, 1, 1, 1
55, 15, 8, 27.19791266003646, 0, 25, 8.0, 4, 81, 1789, 139, 1, 1, 1, 1, 1
55, 15, 9, 27.172704950073044, 0, 18, 6.0, 6, 132, 1830, 236, 1, 1, 1, 1, 1
55, 15, 10, 27.09985507125495, 0, 13, 3.0, 10, 176, 1822, 380, 1, 1, 1, 1, 1
55, 15, 11, 27.108978803635512, 0, 14, 3.0, 12, 119, 1837, 389, 1, 1, 1, 1, 0
55, 16, 3, 20.886393884335384, 0, 29, 14.0, 1, 4, 1061, 4, 1, 0, 1, 0, 0
55, 16, 4, 20.65349336876825, 0, 27, 13.0, 3, 52, 1329, 70, 1, 1, 1, 1, 0
55, 16, 5, 20.520231092559644, 0, 27, 10.0, 3, 18, 1662, 37, 1, 1, 1, 1, 0
55, 16, 6, 20.453325015232174, 0, 28, 10.0, 5, 154, 1713, 184, 1, 1, 1, 1, 1
55, 16, 7, 20.379614894669952, 0, 18, 7.0, 4, 59, 1806, 110, 1, 1, 1, 1, 0
55, 16, 8, 20.32940588536796, 0, 23, 7.0, 6, 155, 1766, 223, 1, 1, 1, 1, 1
55, 16, 9, 20.317945510673322, 0, 21, 5.0, 8, 115, 1826, 228, 1, 1, 1, 1, 0
55, 16, 10, 20.30639557415531, 0, 13, 3.0, 11, 187, 1828, 434, 1, 1, 1, 1, 1
55, 16, 11, 20.273607918513033, 0, 13, 3.0, 12, 182, 1837, 542, 1, 1, 1, 1, 1
55, 17, 3, 12.967749730316944, 1, 30, 14.0, 0, 0, 1207, 0, 1, 1, 0, 0, 1
55, 17, 4, 12.803041183367553, 0, 31, 14.0, 1, 56, 1439, 56, 1, 1, 1, 1, 0
55, 17, 5, 12.744066939962387, 0, 25, 10.0, 2, 13, 1722, 14, 1, 1, 1, 1, 0
55, 17, 6, 12.738289322347738, 0, 23, 8.0, 6, 78, 1729, 119, 1, 1, 1, 1, 1
55, 17, 7, 12.704740496641177, 0, 21, 7.0, 6, 60, 1822, 128, 1, 1, 1, 1, 0
55, 17, 8, 12.668346592453513, 0, 25, 7.0, 5, 135, 1789, 226, 1, 1, 1, 1, 1
55, 17, 9, 12.646596110439068, 0, 19, 5.0, 6, 148, 1839, 202, 1, 1, 1, 1, 1
55, 17, 10, 12.655213153814527, 0, 11, 2.0, 11, 188, 1831, 445, 1, 1, 1, 1, 1
55, 17, 11, 12.646103811587182, 0, 10, 2.0, 13, 197, 1827, 593, 1, 1, 1, 1, 1
55, 18, 3, 5.823700415571073, 0, 26, 14.0, 1, 62, 1200, 62, 1, 1, 1, 1, 1
55, 18, 4, 5.73912020164569, 0, 27, 12.0, 2, 36, 1394, 50, 1, 1, 1, 1, 0
55, 18, 5, 5.718187903885379, 0, 24, 9.0, 4, 34, 1744, 46, 1, 1, 1, 1, 0
55, 18, 6, 5.692495514386978, 0, 23, 8.0, 5, 145, 1758, 212, 1, 1, 1, 1, 1
55, 18, 7, 5.688418795593417, 0, 16, 6.0, 5, 134, 1795, 195, 1, 1, 1, 1, 1
55, 18, 8, 5.672312450518469, 0, 20, 6.0, 6, 178, 1787, 259, 1, 1, 1, 1, 1
55, 18, 9, 5.664883463341848, 0, 16, 4.0, 9, 179, 1824, 432, 1, 1, 1, 1, 1
55, 18, 10, 5.6634839393762, 0, 12, 2.0, 12, 196, 1832, 559, 1, 1, 1, 1, 1
55, 18, 11, 5.663748831382097, 0, 12, 2.0, 14, 178, 1823, 635, 1, 1, 1, 1, 1
55, 19, 3, 41.112569974237914, 0, 25, 13.0, 3, 35, 1200, 41, 1, 1, 1, 1, 0
55, 19, 4, 40.760932025451254, 0, 28, 13.0, 2, 35, 1488, 49, 1, 1, 1, 1, 0
55, 19, 5, 40.55646049622255, 0, 22, 8.0, 4, 91, 1741, 135, 1, 1, 1, 1, 0
55, 19, 6, 40.553516112644125, 0, 21, 7.0, 8, 153, 1778, 235, 1, 1, 1, 1, 1
55, 19, 7, 40.52029499005944, 0, 15, 5.0, 8, 171, 1813, 306, 1, 1, 1, 1, 1
55, 19, 8, 40.44684243531968, 0, 18, 6.0, 4, 116, 1826, 168, 1, 1, 1, 1, 1
55, 19, 9, 40.412655556138375, 0, 15, 4.0, 9, 173, 1806, 426, 1, 1, 1, 1, 1
55, 19, 10, 40.40042156402163, 0, 9, 1.0, 16, 220, 1832, 724, 1, 1, 1, 1, 1
55, 19, 11, 40.40034053229928, 0, 11, 2.0, 15, 187, 1829, 673, 1, 1, 1, 1, 0
60, 3, 3, 31.93010957234764, 1, 13, 7.0, 0, 0, 175, 0, 0, 1, 0, 0, 1
60, 3, 4, 31.023624476138007, 3, 12, 7.0, 0, 0, 157, 0, 0, 1, 0, 0, 1
60, 3, 5, 31.281119050904763, 3, 16, 8.0, 0, 0, 301, 0, 0, 1, 0, 0, 1
60, 3, 6, 31.15797385268237, 3, 15, 9.0, 0, 0, 280, 0, 0, 1, 0, 0, 1
60, 3, 7, 30.944261229709205, 2, 22, 10.0, 0, 0, 408, 0, 0, 1, 0, 0, 1
60, 3, 8, 30.88547651068872, 3, 25, 12.0, 0, 0, 476, 0, 0, 1, 0, 0, 1
60, 3, 9, 31.19168594148959, 3, 24, 14.0, 0, 0, 522, 0, 0, 1, 0, 0, 1
60, 3, 10, 31.130415148806684, 3, 26, 13.0, 0, 0, 614, 0, 0, 1, 0, 0, 1
60, 3, 11, 31.07089174061568, 3, 22, 12.0, 0, 0, 646, 0, 0, 1, 0, 0, 0
60, 4, 3, 26.029605523978343, 2, 12, 7.0, 0, 0, 195, 0, 0, 1, 0, 0, 1
60, 4, 4, 26.103726819618764, 2, 19, 10.0, 0, 0, 344, 0, 0, 1, 0, 0, 1
60, 4, 5, 26.159693723979267, 3, 18, 9.0, 0, 0, 466, 0, 0, 1, 0, 0, 1
60, 4, 6, 25.617741737379188, 3, 22, 12.0, 0, 0, 509, 0, 0, 1, 0, 0, 1
60, 4, 7, 25.590946168728866, 1, 25, 11.0, 0, 0, 668, 0, 1, 0, 0, 0, 0
60, 4, 8, 25.586337397248467, 2, 29, 15.0, 0, 0, 784, 0, 1, 0, 0, 0, 1
60, 4, 9, 25.437024552905008, 2, 31, 14.0, 0, 0, 875, 0, 0, 1, 0, 0, 1
60, 4, 10, 25.114800734175976, 2, 28, 15.0, 0, 0, 970, 0, 0, 1, 0, 0, 1
60, 4, 11, 25.309317179035926, 0, 28, 15.0, 1, 1, 1082, 1, 0, 1, 0, 1, 1
60, 5, 3, 21.75728945669501, 4, 17, 9.0, 0, 0, 297, 0, 0, 1, 0, 0, 1
60, 5, 4, 21.921775110131012, 2, 23, 11.0, 0, 0, 475, 0, 0, 1, 0, 0, 1
60, 5, 5, 21.252177131386993, 1, 21, 11.0, 0, 0, 669, 0, 0, 1, 0, 0, 1
60, 5, 6, 21.62208431146479, 2, 21, 12.0, 0, 0, 704, 0, 0, 1, 0, 0, 1
60, 5, 7, 21.326837015005975, 2, 24, 13.0, 0, 0, 894, 0, 1, 1, 0, 0, 0
60, 5, 8, 21.339413870581723, 3, 33, 15.0, 0, 0, 994, 0, 0, 1, 0, 0, 1
60, 5, 9, 21.16131193035815, 2, 28, 16.0, 0, 0, 1131, 0, 0, 1, 0, 0, 1
60, 5, 10, 20.997266744637198, 1, 30, 15.0, 0, 0, 1242, 0, 1, 0, 0, 0, 0
60, 5, 11, 21.037900837730806, 0, 29, 15.0, 1, 7, 1298, 7, 1, 0, 1, 0, 0
60, 6, 3, 18.1158757229744, 2, 20, 10.0, 0, 0, 386, 0, 0, 1, 0, 0, 1
60, 6, 4, 18.346537122735263, 2, 23, 12.0, 0, 0, 567, 0, 0, 1, 0, 0, 1
60, 6, 5, 18.05381014045411, 3, 26, 14.0, 0, 0, 864, 0, 0, 1, 0, 0, 1
60, 6, 6, 18.186215559929853, 2, 31, 14.0, 0, 0, 927, 0, 1, 0, 0, 0, 0
60, 6, 7, 18.019584328622447, 1, 30, 16.0, 0, 0, 1082, 0, 1, 0, 0, 0, 0
60, 6, 8, 18.033365608512483, 2, 30, 15.0, 0, 0, 1128, 0, 1, 1, 0, 0, 1
60, 6, 9, 17.695831873935784, 0, 37, 17.0, 1, 2, 1345, 2, 0, 1, 0, 1, 1
60, 6, 10, 17.673933310171453, 1, 34, 16.0, 0, 0, 1500, 0, 1, 1, 0, 0, 0
60, 6, 11, 17.599308213424887, 0, 32, 16.0, 1, 8, 1510, 8, 1, 0, 1, 0, 0
60, 7, 3, 18.45955157377268, 0, 19, 10.0, 1, 4, 491, 4, 1, 0, 1, 0, 0
60, 7, 4, 18.239908298396596, 1, 24, 13.0, 0, 0, 676, 0, 1, 0, 0, 0, 1
60, 7, 5, 18.229200144726377, 4, 29, 17.0, 0, 0, 1026, 0, 0, 1, 0, 0, 1
60, 7, 6, 18.16630852708444, 1, 32, 16.0, 0, 0, 1023, 0, 1, 0, 0, 0, 1
60, 7, 7, 18.139927419586066, 2, 33, 16.0, 0, 0, 1245, 0, 1, 0, 0, 0, 1
60, 7, 8, 17.99108137676619, 0, 32, 16.0, 1, 2, 1352, 2, 0, 1, 0, 1, 1
60, 7, 9, 18.01030828531335, 1, 34, 16.0, 0, 0, 1506, 0, 0, 1, 0, 0, 1
60, 7, 10, 17.829573415068143, 0, 30, 14.0, 1, 1, 1685, 1, 0, 1, 0, 1, 1
60, 7, 11, 17.8010516222507, 0, 29, 14.0, 1, 42, 1664, 42, 1, 1, 1, 1, 1
60, 8, 3, 17.26603556037859, 2, 20, 11.0, 0, 0, 584, 0, 0, 1, 0, 0, 1
60, 8, 4, 16.951245530007668, 0, 29, 13.0, 1, 4, 793, 4, 1, 0, 1, 0, 0
60, 8, 5, 16.9718118304859, 1, 29, 15.0, 0, 0, 1121, 0, 0, 1, 0, 0, 1
60, 8, 6, 16.993719302685722, 0, 34, 16.0, 1, 3, 1244, 3, 0, 1, 0, 1, 0
60, 8, 7, 16.813819634207267, 1, 31, 16.0, 0, 0, 1445, 0, 1, 1, 0, 0, 0
60, 8, 8, 16.750461656350506, 0, 33, 16.0, 2, 5, 1492, 10, 1, 1, 1, 1, 1
60, 8, 9, 16.68060976426147, 0, 35, 15.0, 1, 1, 1650, 1, 0, 1, 0, 1, 1
60, 8, 10, 16.63511806676671, 0, 28, 12.0, 2, 60, 1718, 79, 1, 1, 1, 1, 1
60, 8, 11, 16.610049734285273, 0, 33, 12.0, 2, 98, 1761, 106, 1, 1, 1, 1, 1
60, 9, 3, 20.658325898832047, 2, 23, 11.0, 0, 0, 646, 0, 1, 0, 0, 0, 1
60, 9, 4, 20.29373333015605, 0, 25, 13.0, 1, 3, 903, 3, 0, 1, 0, 1, 1
60, 9, 5, 20.130912339330337, 1, 29, 15.0, 0, 0, 1264, 0, 0, 1, 0, 0, 1
60, 9, 6, 20.059737743765243, 0, 31, 15.0, 2, 10, 1353, 11, 1, 1, 1, 1, 0
60, 9, 7, 20.00758350116991, 0, 32, 16.0, 1, 13, 1532, 13, 1, 0, 1, 0, 0
60, 9, 8, 20.00374881615436, 0, 32, 14.0, 2, 71, 1600, 74, 1, 1, 1, 1, 0
60, 9, 9, 19.93949260366014, 0, 27, 12.0, 3, 53, 1667, 66, 1, 1, 1, 1, 0
60, 9, 10, 19.887673269551797, 0, 26, 10.0, 2, 70, 1807, 86, 1, 1, 1, 1, 0
60, 9, 11, 19.86275755507011, 0, 27, 10.0, 2, 100, 1828, 107, 1, 1, 1, 1, 1
60, 10, 3, 10.73052199468821, 1, 20, 12.0, 0, 0, 715, 0, 0, 1, 0, 0, 1
60, 10, 4, 10.794679350601626, 2, 27, 14.0, 0, 0, 1005, 0, 1, 1, 0, 0, 1
60, 10, 5, 10.742745308687317, 1, 32, 16.0, 0, 0, 1330, 0, 0, 1, 0, 0, 1
60, 10, 6, 10.634741817045503, 0, 30, 14.0, 1, 55, 1403, 55, 1, 1, 1, 1, 0
60, 10, 7, 10.65072555823183, 0, 31, 14.0, 2, 60, 1593, 62, 1, 1, 1, 1, 0
60, 10, 8, 10.668944804687007, 0, 30, 13.0, 2, 76, 1607, 80, 1, 1, 1, 1, 1
60, 10, 9, 10.674612873054622, 0, 25, 11.0, 3, 72, 1710, 102, 1, 1, 1, 1, 1
60, 10, 10, 10.641010722647014, 0, 24, 10.0, 2, 65, 1814, 74, 1, 1, 1, 1, 0
60, 10, 11, 10.62456914295728, 0, 25, 9.0, 3, 130, 1871, 162, 1, 1, 1, 1, 1
60, 11, 3, 17.620510400253778, 1, 22, 12.0, 0, 0, 765, 0, 1, 0, 0, 0, 1
60, 11, 4, 17.195485887162935, 1, 28, 14.0, 0, 0, 1077, 0, 1, 1, 0, 0, 1
60, 11, 5, 17.318878025182794, 1, 29, 15.0, 0, 0, 1401, 0, 1, 0, 0, 0, 1
60, 11, 6, 17.113429438861687, 0, 27, 13.0, 2, 6, 1516, 7, 1, 1, 1, 1, 0
60, 11, 7, 17.034334363062904, 0, 29, 12.0, 1, 67, 1615, 67, 1, 1, 1, 1, 0
60, 11, 8, 17.066794692023425, 0, 26, 11.0, 2, 77, 1688, 87, 1, 1, 1, 1, 1
60, 11, 9, 16.994481939403773, 0, 29, 10.0, 2, 67, 1785, 72, 1, 1, 1, 1, 1
60, 11, 10, 17.057838369228392, 0, 22, 7.0, 4, 128, 1834, 170, 1, 1, 1, 1, 1
60, 11, 11, 17.02225036102895, 0, 22, 8.0, 5, 33, 1874, 58, 1, 1, 1, 1, 0
60, 12, 3, 9.067408803152825, 2, 28, 14.0, 0, 0, 865, 0, 0, 1, 0, 0, 1
60, 12, 4, 8.997935265168355, 1, 31, 15.0, 0, 0, 1146, 0, 1, 0, 0, 0, 0
60, 12, 5, 8.95644806947347, 1, 28, 15.0, 0, 0, 1508, 0, 0, 1, 0, 0, 1
60, 12, 6, 8.946508302672974, 0, 31, 13.0, 1, 65, 1575, 65, 1, 1, 1, 1, 1
60, 12, 7, 8.896488424310629, 0, 32, 12.0, 2, 5, 1722, 7, 1, 1, 1, 1, 0
60, 12, 8, 8.891199849848872, 0, 30, 12.0, 2, 124, 1715, 137, 1, 1, 1, 1, 1
60, 12, 9, 8.866440984158354, 0, 33, 11.0, 2, 100, 1803, 115, 1, 1, 1, 1, 1
60, 12, 10, 8.85622643084792, 0, 19, 7.0, 4, 62, 1891, 86, 1, 1, 1, 1, 1
60, 12, 11, 8.843437389914891, 0, 18, 6.0, 4, 160, 1885, 189, 1, 1, 1, 1, 1
60, 13, 3, 24.737649897417427, 0, 26, 13.0, 1, 22, 932, 22, 1, 1, 1, 1, 0
60, 13, 4, 24.471182328551627, 1, 32, 15.0, 0, 0, 1239, 0, 0, 1, 0, 0, 0
60, 13, 5, 24.380095346183488, 0, 27, 14.0, 1, 21, 1594, 21, 1, 0, 1, 0, 0
60, 13, 6, 24.421062938482287, 0, 29, 12.0, 3, 63, 1652, 75, 1, 1, 1, 1, 0
60, 13, 7, 24.3309467984362, 0, 26, 11.0, 1, 58, 1809, 58, 1, 1, 1, 1, 0
60, 13, 8, 24.330429728248834, 0, 29, 10.0, 3, 128, 1781, 150, 1, 1, 1, 1, 1
60, 13, 9, 24.210181334269137, 0, 26, 9.0, 4, 124, 1856, 153, 1, 1, 1, 1, 1
60, 13, 10, 24.171102003731093, 0, 17, 6.0, 6, 91, 1880, 142, 1, 1, 1, 1, 1
60, 13, 11, 24.173520611779725, 0, 19, 5.0, 5, 162, 1884, 255, 1, 1, 1, 1, 1
60, 14, 3, 14.52763053130891, 1, 28, 15.0, 0, 0, 1060, 0, 1, 0, 0, 0, 0
60, 14, 4, 14.298862386707942, 1, 33, 16.0, 0, 0, 1304, 0, 1, 0, 0, 0, 1
60, 14, 5, 14.196069332440596, 0, 25, 12.0, 2, 22, 1639, 23, 1, 1, 1, 1, 0
60, 14, 6, 14.150651140841441, 0, 30, 12.0, 1, 78, 1746, 78, 1, 1, 1, 1, 0
60, 14, 7, 14.131914827785396, 0, 24, 9.0, 2, 76, 1814, 88, 1, 1, 1, 1, 0
60, 14, 8, 14.078814286600945, 0, 30, 10.0, 2, 124, 1827, 136, 1, 1, 1, 1, 1
60, 14, 9, 14.047021515088163, 0, 23, 8.0, 5, 126, 1875, 188, 1, 1, 1, 1, 1
60, 14, 10, 14.030530944435215, 0, 18, 5.0, 5, 174, 1884, 253, 1, 1, 1, 1, 1
60, 14, 11, 14.01338461148997, 0, 19, 4.0, 7, 166, 1889, 302, 1, 1, 1, 1, 1
60, 15, 3, 7.24866010272284, 2, 29, 16.0, 0, 0, 1051, 0, 1, 1, 0, 0, 1
60, 15, 4, 7.290689637125199, 0, 29, 15.0, 2, 51, 1336, 54, 1, 1, 1, 1, 0
60, 15, 5, 7.240224036522923, 0, 26, 12.0, 2, 83, 1704, 93, 1, 1, 1, 1, 0
60, 15, 6, 7.196882777053174, 0, 30, 11.0, 3, 93, 1770, 111, 1, 1, 1, 1, 1
60, 15, 7, 7.179222137617301, 0, 23, 8.0, 3, 87, 1831, 113, 1, 1, 1, 1, 0
60, 15, 8, 7.164799194122001, 0, 26, 8.0, 4, 164, 1828, 199, 1, 1, 1, 1, 1
60, 15, 9, 7.14490912567621, 0, 26, 7.0, 6, 122, 1871, 167, 1, 1, 1, 1, 1
60, 15, 10, 7.137832966015575, 0, 15, 4.0, 8, 163, 1893, 304, 1, 1, 1, 1, 1
60, 15, 11, 7.13212713538763, 0, 16, 3.0, 11, 199, 1881, 417, 1, 1, 1, 1, 1
60, 16, 3, 33.93446777101916, 0, 27, 14.0, 1, 1, 1149, 1, 0, 1, 0, 1, 1
60, 16, 4, 33.766217999069454, 0, 36, 15.0, 2, 28, 1384, 31, 1, 1, 1, 1, 0
60, 16, 5, 33.84849544789667, 0, 29, 11.0, 2, 123, 1699, 130, 1, 1, 1, 1, 1
60, 16, 6, 33.607575204896186, 0, 26, 10.0, 2, 161, 1764, 177, 1, 1, 1, 1, 1
60, 16, 7, 33.51984233426757, 0, 20, 8.0, 4, 153, 1869, 169, 1, 1, 1, 1, 1
60, 16, 8, 33.506582365344016, 0, 27, 8.0, 6, 169, 1838, 223, 1, 1, 1, 1, 1
60, 16, 9, 33.50196509058961, 0, 24, 6.0, 6, 124, 1876, 194, 1, 1, 1, 1, 1
60, 16, 10, 33.456438591794225, 0, 18, 4.0, 9, 181, 1892, 342, 1, 1, 1, 1, 1
60, 16, 11, 33.43732289523454, 0, 15, 3.0, 13, 169, 1902, 411, 1, 1, 1, 1, 1
60, 17, 3, 27.36012005701688, 1, 27, 14.0, 0, 0, 1146, 0, 1, 1, 0, 0, 0
60, 17, 4, 27.24099419191846, 0, 28, 13.0, 3, 30, 1495, 42, 1, 1, 1, 1, 0
60, 17, 5, 27.070360102271888, 0, 24, 10.0, 3, 125, 1714, 134, 1, 1, 1, 1, 1
60, 17, 6, 26.951855022714184, 0, 24, 9.0, 2, 145, 1805, 160, 1, 1, 1, 1, 1
60, 17, 7, 26.87429691666355, 0, 25, 8.0, 5, 92, 1869, 132, 1, 1, 1, 1, 1
60, 17, 8, 26.855189910796216, 0, 24, 7.0, 5, 167, 1873, 195, 1, 1, 1, 1, 1
60, 17, 9, 26.841953511950493, 0, 19, 5.0, 7, 170, 1892, 279, 1, 1, 1, 1, 1
60, 17, 10, 26.847731564455092, 0, 11, 2.0, 10, 184, 1883, 415, 1, 1, 1, 1, 1
60, 17, 11, 26.829033531443795, 0, 16, 3.0, 10, 173, 1905, 438, 1, 1, 1, 1, 1
60, 18, 3, 19.417605486001957, 0, 30, 16.0, 1, 2, 1290, 2, 0, 1, 0, 1, 1
60, 18, 4, 19.39664413284139, 0, 37, 14.0, 3, 56, 1522, 65, 1, 1, 1, 1, 0
60, 18, 5, 19.304519380020423, 0, 21, 9.0, 2, 129, 1749, 139, 1, 1, 1, 1, 1
60, 18, 6, 19.26552894832599, 0, 25, 8.0, 3, 161, 1841, 193, 1, 1, 1, 1, 1
60, 18, 7, 19.22680956227268, 0, 20, 6.0, 8, 87, 1873, 128, 1, 1, 1, 1, 0
60, 18, 8, 19.17720534276862, 0, 23, 7.0, 7, 160, 1875, 237, 1, 1, 1, 1, 1
60, 18, 9, 19.17029875939893, 0, 20, 5.0, 9, 191, 1888, 313, 1, 1, 1, 1, 1
60, 18, 10, 19.146818927546637, 0, 11, 2.0, 11, 173, 1898, 438, 1, 1, 1, 1, 1
60, 18, 11, 19.150584030256653, 0, 12, 2.0, 12, 172, 1900, 500, 1, 1, 1, 1, 1
60, 19, 3, 11.068355046379153, 0, 29, 15.0, 1, 7, 1304, 7, 1, 0, 1, 0, 0
60, 19, 4, 10.958822429381161, 0, 32, 12.0, 1, 56, 1498, 56, 1, 1, 1, 1, 0
60, 19, 5, 10.870541402488877, 0, 24, 9.0, 2, 124, 1781, 133, 1, 1, 1, 1, 1
60, 19, 6, 10.842619661253162, 0, 24, 8.0, 3, 157, 1833, 181, 1, 1, 1, 1, 1
60, 19, 7, 10.829907134993976, 0, 17, 6.0, 7, 105, 1888, 124, 1, 1, 1, 1, 1
60, 19, 8, 10.811489198460661, 0, 20, 6.0, 7, 165, 1896, 216, 1, 1, 1, 1, 1
60, 19, 9, 10.801207372417577, 0, 21, 5.0, 10, 183, 1875, 397, 1, 1, 1, 1, 1
60, 19, 10, 10.794810123124586, 0, 13, 2.0, 12, 180, 1887, 604, 1, 1, 1, 1, 1
60, 19, 11, 10.796808004528808, 0, 12, 2.0, 11, 187, 1892, 471, 1, 1, 1, 1, 1
65, 3, 3, 35.78132648059177, 3, 14, 7.0, 0, 0, 177, 0, 0, 1, 0, 0, 1
65, 3, 4, 34.979456458604, 5, 19, 11.0, 0, 0, 184, 0, 0, 1, 0, 0, 1
65, 3, 5, 35.16339085046672, 2, 16, 7.0, 0, 0, 292, 0, 0, 1, 0, 0, 1
65, 3, 6, 35.254294990941936, 2, 19, 10.0, 0, 0, 322, 0, 0, 1, 0, 0, 1
65, 3, 7, 34.81751113994246, 4, 20, 11.0, 0, 0, 433, 0, 0, 1, 0, 0, 1
65, 3, 8, 34.92885724121646, 3, 26, 13.0, 0, 0, 485, 0, 0, 1, 0, 0, 1
65, 3, 9, 35.28345452734885, 1, 22, 11.0, 0, 0, 592, 0, 0, 1, 0, 0, 1
65, 3, 10, 35.21776781944737, 3, 24, 13.0, 0, 0, 571, 0, 0, 1, 0, 0, 0
65, 3, 11, 35.07760423438617, 5, 23, 14.0, 0, 0, 650, 0, 1, 1, 0, 0, 1
65, 4, 3, 29.93999285316869, 4, 16, 10.0, 0, 0, 231, 0, 0, 1, 0, 0, 1
65, 4, 4, 29.66696931739352, 3, 19, 10.0, 0, 0, 354, 0, 0, 1, 0, 0, 1
65, 4, 5, 29.674825788046398, 3, 23, 12.0, 0, 0, 477, 0, 1, 1, 0, 0, 1
65, 4, 6, 29.40058181141801, 2, 24, 11.0, 0, 0, 543, 0, 0, 1, 0, 0, 1
65, 4, 7, 29.345212582404248, 1, 23, 13.0, 0, 0, 722, 0, 1, 0, 0, 0, 0
65, 4, 8, 28.796617197407432, 4, 23, 14.0, 0, 0, 778, 0, 0, 1, 0, 0, 1
65, 4, 9, 28.911948651292057, 3, 27, 15.0, 0, 0, 922, 0, 0, 1, 0, 0, 1
65, 4, 10, 28.93186329818613, 4, 28, 16.0, 0, 0, 969, 0, 1, 1, 0, 0, 1
65, 4, 11, 28.812613048942904, 2, 26, 14.0, 0, 0, 980, 0, 1, 1, 0, 0, 0
65, 5, 3, 24.873140742590866, 4, 16, 9.0, 0, 0, 376, 0, 0, 1, 0, 0, 1
65, 5, 4, 24.90029526905951, 4, 18, 10.0, 0, 0, 505, 0, 1, 1, 0, 0, 1
65, 5, 5, 24.34177413546413, 2, 24, 13.0, 0, 0, 626, 0, 0, 1, 0, 0, 1
65, 5, 6, 24.819282940300962, 1, 23, 13.0, 0, 0, 774, 0, 1, 0, 0, 0, 0
65, 5, 7, 24.600662344192187, 2, 28, 15.0, 0, 0, 910, 0, 1, 0, 0, 0, 1
65, 5, 8, 24.351514126781378, 1, 32, 16.0, 0, 0, 975, 0, 1, 1, 0, 0, 1
65, 5, 9, 24.256553355174713, 2, 27, 16.0, 0, 0, 1193, 0, 1, 1, 0, 0, 1
65, 5, 10, 23.960250038510775, 1, 28, 17.0, 0, 0, 1232, 0, 1, 0, 0, 0, 1
65, 5, 11, 23.94584498031798, 0, 31, 16.0, 1, 3, 1295, 3, 1, 0, 1, 0, 0
65, 6, 3, 24.250908035435625, 3, 18, 10.0, 0, 0, 369, 0, 1, 0, 0, 0, 1
65, 6, 4, 23.72436266675224, 4, 22, 12.0, 0, 0, 579, 0, 1, 1, 0, 0, 1
65, 6, 5, 23.970211672158907, 3, 27, 16.0, 0, 0, 929, 0, 1, 1, 0, 0, 1
65, 6, 6, 23.72925687369689, 3, 30, 16.0, 0, 0, 907, 0, 1, 0, 0, 0, 1
65, 6, 7, 23.76161712021887, 1, 31, 16.0, 0, 0, 1071, 0, 1, 0, 0, 0, 1
65, 6, 8, 23.668795810482433, 1, 31, 17.0, 0, 0, 1173, 0, 1, 1, 0, 0, 1
65, 6, 9, 23.375308474771114, 2, 32, 17.0, 0, 0, 1361, 0, 1, 0, 0, 0, 1
65, 6, 10, 23.281279973354728, 2, 30, 15.0, 0, 0, 1533, 0, 1, 1, 0, 0, 1
65, 6, 11, 23.178696584789197, 1, 31, 15.0, 0, 0, 1559, 0, 1, 0, 0, 0, 0
65, 7, 3, 19.035902187121177, 2, 19, 10.0, 0, 0, 487, 0, 0, 1, 0, 0, 1
65, 7, 4, 18.68640533070933, 3, 27, 13.0, 0, 0, 665, 0, 1, 1, 0, 0, 1
65, 7, 5, 18.559291584079897, 2, 29, 16.0, 0, 0, 969, 0, 1, 1, 0, 0, 1
65, 7, 6, 18.748859646873907, 1, 26, 14.0, 0, 0, 1051, 0, 1, 0, 0, 0, 0
65, 7, 7, 18.404158216423543, 2, 35, 16.0, 0, 0, 1289, 0, 1, 1, 0, 0, 0
65, 7, 8, 18.34106651861178, 2, 33, 17.0, 0, 0, 1391, 0, 1, 1, 0, 0, 1
65, 7, 9, 18.362593721005066, 2, 35, 18.0, 0, 0, 1533, 0, 0, 1, 0, 0, 1
65, 7, 10, 18.183602588455532, 1, 35, 16.0, 0, 0, 1655, 0, 1, 0, 0, 0, 1
65, 7, 11, 18.13932459690888, 0, 31, 14.0, 1, 23, 1698, 23, 1, 0, 1, 0, 1
65, 8, 3, 15.848514190519829, 2, 19, 10.0, 0, 0, 553, 0, 1, 0, 0, 0, 0
65, 8, 4, 15.795625697506148, 1, 28, 14.0, 0, 0, 771, 0, 1, 1, 0, 0, 0
65, 8, 5, 15.979142969237696, 1, 32, 17.0, 0, 0, 1086, 0, 1, 0, 0, 0, 1
65, 8, 6, 15.809077189362489, 1, 28, 15.0, 0, 0, 1188, 0, 1, 0, 0, 0, 0
65, 8, 7, 15.83608784053554, 1, 34, 17.0, 0, 0, 1432, 0, 1, 1, 0, 0, 1
65, 8, 8, 15.721121072337313, 0, 37, 16.0, 1, 118, 1545, 118, 1, 1, 1, 1, 1
65, 8, 9, 15.607533724245998, 1, 40, 16.0, 0, 0, 1672, 0, 1, 1, 0, 0, 1
65, 8, 10, 15.607756886399988, 1, 27, 13.0, 0, 0, 1778, 0, 1, 0, 0, 0, 1
65, 8, 11, 15.546778824057684, 0, 36, 14.0, 1, 68, 1834, 68, 1, 1, 1, 1, 0
65, 9, 3, 14.987886414645754, 1, 22, 13.0, 0, 0, 617, 0, 1, 0, 0, 0, 1
65, 9, 4, 14.880845966955333, 1, 28, 14.0, 0, 0, 884, 0, 1, 0, 0, 0, 1
65, 9, 5, 14.88164499127321, 3, 33, 17.0, 0, 0, 1302, 0, 1, 0, 0, 0, 1
65, 9, 6, 14.814389393353927, 1, 34, 18.0, 0, 0, 1360, 0, 1, 0, 0, 0, 1
65, 9, 7, 14.765697359883168, 0, 36, 16.0, 1, 55, 1590, 55, 1, 1, 1, 1, 1
65, 9, 8, 14.765736586179509, 0, 35, 16.0, 1, 62, 1609, 62, 1, 1, 1, 1, 0
65, 9, 9, 14.70810936986346, 0, 33, 15.0, 1, 52, 1743, 52, 1, 1, 1, 1, 1
65, 9, 10, 14.6970636944027, 0, 26, 11.0, 1, 57, 1853, 57, 1, 1, 1, 1, 1
65, 9, 11, 14.642274706590381, 0, 28, 12.0, 1, 53, 1856, 53, 1, 1, 1, 1, 0
65, 10, 3, 19.295143709710665, 2, 24, 13.0, 0, 0, 741, 0, 0, 1, 0, 0, 1
65, 10, 4, 19.03105248600705, 2, 29, 15.0, 0, 0, 1002, 0, 1, 1, 0, 0, 1
65, 10, 5, 19.073595027476134, 1, 28, 16.0, 0, 0, 1403, 0, 1, 0, 0, 0, 1
65, 10, 6, 19.026218863088552, 0, 32, 16.0, 1, 6, 1515, 6, 1, 0, 1, 0, 0
65, 10, 7, 18.93596807941998, 0, 32, 14.0, 2, 114, 1616, 116, 1, 1, 1, 1, 1
65, 10, 8, 18.906310542756504, 0, 33, 15.0, 1, 118, 1702, 118, 1, 1, 1, 1, 1
65, 10, 9, 18.874529160783872, 0, 34, 13.0, 1, 115, 1751, 115, 1, 1, 1, 1, 1
65, 10, 10, 18.83931964865068, 0, 28, 11.0, 3, 69, 1899, 83, 1, 1, 1, 1, 1
65, 10, 11, 18.818936590238636, 0, 29, 9.0, 3, 115, 1903, 123, 1, 1, 1, 1, 1
65, 11, 3, 31.011229959301698, 2, 23, 12.0, 0, 0, 851, 0, 1, 0, 0, 0, 1
65, 11, 4, 30.689568422711595, 1, 36, 17.0, 0, 0, 1136, 0, 1, 1, 0, 0, 0
65, 11, 5, 30.880002636456567, 0, 31, 15.0, 1, 47, 1448, 47, 1, 0, 1, 0, 1
65, 11, 6, 30.619724965167926, 0, 28, 14.0, 1, 4, 1551, 4, 0, 1, 0, 1, 1
65, 11, 7, 30.512353936291056, 0, 29, 13.0, 1, 116, 1688, 116, 1, 1, 1, 1, 1
65, 11, 8, 30.437572181100727, 0, 32, 13.0, 2, 12, 1745, 16, 1, 1, 1, 1, 0
65, 11, 9, 30.433422023272986, 0, 27, 11.0, 2, 57, 1839, 58, 1, 1, 1, 1, 1
65, 11, 10, 30.32676997369766, 0, 23, 8.0, 2, 113, 1892, 125, 1, 1, 1, 1, 1
65, 11, 11, 30.318551226520633, 0, 29, 9.0, 1, 157, 1901, 157, 1, 1, 1, 1, 1
65, 12, 3, 18.709595702081952, 0, 25, 14.0, 1, 6, 875, 6, 1, 0, 1, 0, 0
65, 12, 4, 18.276548205747936, 1, 33, 17.0, 0, 0, 1280, 0, 1, 1, 0, 0, 1
65, 12, 5, 18.4921702093484, 0, 33, 16.0, 1, 4, 1591, 4, 1, 0, 1, 0, 1
65, 12, 6, 18.32523452558159, 0, 30, 14.0, 2, 8, 1653, 10, 1, 1, 1, 1, 0
65, 12, 7, 18.197029912247334, 0, 31, 13.0, 1, 119, 1767, 119, 1, 1, 1, 1, 1
65, 12, 8, 18.151840953884022, 0, 26, 12.0, 1, 77, 1822, 77, 1, 1, 1, 1, 1
65, 12, 9, 18.16484347990701, 0, 30, 11.0, 3, 124, 1883, 132, 1, 1, 1, 1, 1
65, 12, 10, 18.18498108550675, 0, 21, 7.0, 2, 153, 1941, 157, 1, 1, 1, 1, 1
65, 12, 11, 18.170446106862425, 0, 21, 7.0, 4, 144, 1929, 166, 1, 1, 1, 1, 1
65, 13, 3, 9.66779581385268, 1, 29, 15.0, 0, 0, 963, 0, 0, 1, 0, 0, 1
65, 13, 4, 9.63096156634433, 1, 33, 16.0, 0, 0, 1228, 0, 1, 0, 0, 0, 0
65, 13, 5, 9.540850827729829, 0, 28, 15.0, 1, 55, 1671, 55, 1, 1, 1, 1, 1
65, 13, 6, 9.555874869633325, 0, 29, 14.0, 1, 52, 1722, 52, 1, 1, 1, 1, 1
65, 13, 7, 9.479365596438381, 0, 28, 11.0, 2, 92, 1817, 93, 1, 1, 1, 1, 1
65, 13, 8, 9.477243411270978, 0, 27, 11.0, 1, 90, 1813, 90, 1, 1, 1, 1, 0
65, 13, 9, 9.45923553703034, 0, 32, 11.0, 4, 148, 1862, 187, 1, 1, 1, 1, 1
65, 13, 10, 9.45604160346252, 0, 18, 7.0, 3, 159, 1943, 171, 1, 1, 1, 1, 1
65, 13, 11, 9.457197677687365, 0, 19, 6.0, 5, 157, 1948, 185, 1, 1, 1, 1, 1
65, 14, 3, 28.9879914464946, 0, 26, 13.0, 1, 56, 962, 56, 1, 1, 1, 1, 1
65, 14, 4, 28.628127040336565, 2, 36, 16.0, 0, 0, 1423, 0, 1, 1, 0, 0, 0
65, 14, 5, 28.487392540980466, 1, 31, 15.0, 0, 0, 1664, 0, 1, 1, 0, 0, 1
65, 14, 6, 28.539438236616448, 0, 30, 13.0, 1, 56, 1799, 56, 1, 1, 1, 1, 0
65, 14, 7, 28.467370917603226, 0, 27, 11.0, 2, 81, 1849, 84, 1, 1, 1, 1, 1
65, 14, 8, 28.433248711538653, 0, 27, 10.0, 3, 25, 1888, 59, 1, 1, 1, 1, 0
65, 14, 9, 28.333489421865515, 0, 22, 8.0, 3, 155, 1924, 166, 1, 1, 1, 1, 1
65, 14, 10, 28.315224795132654, 0, 19, 6.0, 5, 129, 1947, 187, 1, 1, 1, 1, 1
65, 14, 11, 28.291969500346877, 0, 22, 5.0, 5, 164, 1951, 201, 1, 1, 1, 1, 1
65, 15, 3, 18.307170259672894, 0, 30, 15.0, 1, 50, 1110, 50, 1, 1, 1, 1, 0
65, 15, 4, 18.036636611151483, 0, 36, 16.0, 1, 67, 1462, 67, 1, 1, 1, 1, 1
65, 15, 5, 17.953622306908926, 0, 29, 14.0, 1, 58, 1762, 58, 1, 1, 1, 1, 1
65, 15, 6, 17.880597927033833, 0, 31, 12.0, 1, 97, 1847, 97, 1, 1, 1, 1, 1
65, 15, 7, 17.877810931893094, 0, 26, 9.0, 2, 88, 1873, 90, 1, 1, 1, 1, 1
65, 15, 8, 17.79561787128667, 0, 24, 8.0, 3, 139, 1925, 145, 1, 1, 1, 1, 1
65, 15, 9, 17.78594197612645, 0, 29, 7.0, 4, 123, 1934, 158, 1, 1, 1, 1, 1
65, 15, 10, 17.777064686954475, 0, 17, 5.0, 5, 156, 1969, 197, 1, 1, 1, 1, 1
65, 15, 11, 17.74471185354285, 0, 19, 4.0, 4, 169, 1968, 217, 1, 1, 1, 1, 1
65, 16, 3, 8.477760032573917, 0, 28, 15.0, 1, 50, 1129, 50, 1, 1, 1, 1, 1
65, 16, 4, 8.432701339082787, 0, 28, 14.0, 1, 49, 1478, 49, 1, 1, 1, 1, 0
65, 16, 5, 8.331839198270094, 0, 32, 13.0, 1, 111, 1794, 111, 1, 1, 1, 1, 1
65, 16, 6, 8.319382652630486, 0, 30, 11.0, 2, 105, 1856, 107, 1, 1, 1, 1, 1
65, 16, 7, 8.302358244782614, 0, 26, 8.0, 2, 104, 1921, 115, 1, 1, 1, 1, 1
65, 16, 8, 8.289370701714143, 0, 19, 8.0, 3, 137, 1943, 153, 1, 1, 1, 1, 1
65, 16, 9, 8.278767589368108, 0, 22, 7.0, 3, 158, 1928, 184, 1, 1, 1, 1, 1
65, 16, 10, 8.264529965045705, 0, 19, 4.0, 9, 180, 1977, 307, 1, 1, 1, 1, 1
65, 16, 11, 8.262411018957152, 0, 17, 4.0, 9, 168, 1950, 304, 1, 1, 1, 1, 1
65, 17, 3, 40.35498650731011, 0, 30, 15.0, 1, 50, 1213, 50, 1, 1, 1, 1, 0
65, 17, 4, 40.08671894062925, 0, 30, 14.0, 1, 2, 1506, 2, 1, 0, 1, 0, 0
65, 17, 5, 39.956672515684964, 0, 29, 12.0, 1, 71, 1858, 71, 1, 1, 1, 1, 1
65, 17, 6, 39.92607763150591, 0, 25, 11.0, 2, 102, 1863, 105, 1, 1, 1, 1, 1
65, 17, 7, 39.752031352018406, 0, 24, 8.0, 1, 85, 1908, 85, 1, 1, 1, 1, 1
65, 17, 8, 39.78298106887265, 0, 21, 7.0, 3, 152, 1942, 156, 1, 1, 1, 1, 1
65, 17, 9, 39.728250809952144, 0, 22, 6.0, 4, 149, 1977, 183, 1, 1, 1, 1, 1
65, 17, 10, 39.75067026172852, 0, 13, 3.0, 5, 170, 1956, 293, 1, 1, 1, 1, 1
65, 17, 11, 39.7389355691397, 0, 14, 3.0, 14, 174, 1958, 388, 1, 1, 1, 1, 1
65, 18, 3, 34.03011469379446, 0, 29, 13.0, 1, 5, 1268, 5, 1, 0, 1, 0, 0
65, 18, 4, 33.73955462989108, 0, 32, 14.0, 1, 51, 1562, 51, 1, 1, 1, 1, 0
65, 18, 5, 33.768488869986705, 0, 26, 11.0, 1, 8, 1797, 8, 1, 0, 1, 0, 1
65, 18, 6, 33.596302956657965, 0, 25, 9.0, 1, 107, 1894, 107, 1, 1, 1, 1, 1
65, 18, 7, 33.580373959671654, 0, 23, 7.0, 2, 159, 1901, 176, 1, 1, 1, 1, 1
65, 18, 8, 33.50911709425809, 0, 19, 6.0, 4, 140, 1923, 174, 1, 1, 1, 1, 1
65, 18, 9, 33.48340711560152, 0, 18, 5.0, 8, 146, 1957, 278, 1, 1, 1, 1, 1
65, 18, 10, 33.47085912594981, 0, 12, 3.0, 11, 171, 1962, 381, 1, 1, 1, 1, 1
65, 18, 11, 33.461661052899125, 0, 13, 3.0, 10, 172, 1966, 389, 1, 1, 1, 1, 1
65, 19, 3, 26.32735328195418, 1, 32, 15.0, 0, 0, 1302, 0, 1, 0, 0, 0, 1
65, 19, 4, 26.367508709297322, 0, 32, 15.0, 1, 56, 1620, 56, 1, 1, 1, 1, 0
65, 19, 5, 26.35589161755982, 0, 26, 10.0, 1, 118, 1808, 118, 1, 1, 1, 1, 1
65, 19, 6, 26.099756788470813, 0, 23, 8.0, 2, 118, 1899, 121, 1, 1, 1, 1, 1
65, 19, 7, 26.06536489104545, 0, 19, 6.0, 2, 94, 1956, 115, 1, 1, 1, 1, 1
65, 19, 8, 26.059247220933788, 0, 22, 6.0, 7, 169, 1946, 216, 1, 1, 1, 1, 1
65, 19, 9, 26.0460349264169, 0, 19, 5.0, 11, 167, 1961, 345, 1, 1, 1, 1, 1
65, 19, 10, 26.041187011316207, 0, 11, 2.0, 9, 170, 1955, 516, 1, 1, 1, 1, 1
65, 19, 11, 26.031084767919385, 0, 15, 3.0, 10, 167, 1957, 406, 1, 1, 1, 1, 1
70, 3, 3, 40.1789620462313, 3, 13, 7.0, 0, 0, 144, 0, 0, 1, 0, 0, 1
70, 3, 4, 39.37939730782915, 3, 19, 9.0, 0, 0, 237, 0, 0, 1, 0, 0, 1
70, 3, 5, 40.087396007903386, 3, 17, 9.0, 0, 0, 270, 0, 0, 1, 0, 0, 1
70, 3, 6, 39.6177721511782, 3, 17, 10.0, 0, 0, 296, 0, 0, 1, 0, 0, 1
70, 3, 7, 39.44938294087726, 3, 23, 12.0, 0, 0, 434, 0, 0, 1, 0, 0, 1
70, 3, 8, 39.164482041544204, 4, 25, 14.0, 0, 0, 539, 0, 0, 1, 0, 0, 1
70, 3, 9, 39.499120453001126, 3, 24, 13.0, 0, 0, 566, 0, 0, 1, 0, 0, 1
70, 3, 10, 39.947201027319345, 5, 26, 15.0, 0, 0, 488, 0, 0, 1, 0, 0, 1
70, 3, 11, 39.52034701343952, 4, 26, 14.0, 0, 0, 700, 0, 0, 1, 0, 0, 1
70, 4, 3, 33.46165274070603, 4, 16, 9.0, 0, 0, 255, 0, 0, 1, 0, 0, 1
70, 4, 4, 33.5142859926697, 1, 18, 10.0, 0, 0, 343, 0, 0, 1, 0, 0, 1
70, 4, 5, 32.99746100841724, 3, 20, 11.0, 0, 0, 501, 0, 0, 1, 0, 0, 1
70, 4, 6, 32.638666999947596, 5, 23, 13.0, 0, 0, 585, 0, 1, 0, 0, 0, 1
70, 4, 7, 32.69048973468572, 5, 25, 14.0, 0, 0, 754, 0, 0, 1, 0, 0, 1
70, 4, 8, 32.43546776450419, 3, 24, 14.0, 0, 0, 754, 0, 1, 1, 0, 0, 1
70, 4, 9, 32.47947725856768, 4, 27, 15.0, 0, 0, 873, 0, 0, 1, 0, 0, 1
70, 4, 10, 32.514739123826025, 4, 26, 14.0, 0, 0, 987, 0, 0, 1, 0, 0, 1
70, 4, 11, 32.62329594100043, 2, 27, 14.0, 0, 0, 1008, 0, 1, 1, 0, 0, 0
70, 5, 3, 27.71410152396422, 3, 16, 10.0, 0, 0, 382, 0, 1, 1, 0, 0, 1
70, 5, 4, 27.983780516720856, 2, 18, 10.0, 0, 0, 469, 0, 0, 1, 0, 0, 1
70, 5, 5, 27.70653159646217, 3, 24, 12.0, 0, 0, 659, 0, 1, 0, 0, 0, 1
70, 5, 6, 27.784776398375687, 3, 24, 13.0, 0, 0, 755, 0, 1, 0, 0, 0, 1
70, 5, 7, 27.638051775184078, 5, 30, 16.0, 0, 0, 954, 0, 1, 1, 0, 0, 1
70, 5, 8, 27.38194257016727, 3, 27, 15.0, 0, 0, 1007, 0, 0, 1, 0, 0, 1
70, 5, 9, 27.31853840973197, 1, 32, 17.0, 0, 0, 1190, 0, 1, 0, 0, 0, 1
70, 5, 10, 27.047407536720787, 2, 32, 18.0, 0, 0, 1297, 0, 1, 1, 0, 0, 1
70, 5, 11, 27.14155760378008, 1, 31, 16.0, 0, 0, 1331, 0, 1, 1, 0, 0, 1
70, 6, 3, 26.440808368555277, 2, 20, 11.0, 0, 0, 412, 0, 0, 1, 0, 0, 1
70, 6, 4, 25.643630821044184, 1, 26, 13.0, 0, 0, 596, 0, 0, 1, 0, 0, 1
70, 6, 5, 25.481644238035912, 3, 33, 17.0, 0, 0, 880, 0, 0, 1, 0, 0, 1
70, 6, 6, 25.550368311560963, 3, 28, 15.0, 0, 0, 960, 0, 0, 1, 0, 0, 1
70, 6, 7, 25.25802268754618, 2, 36, 17.0, 0, 0, 1134, 0, 1, 0, 0, 0, 1
70, 6, 8, 25.225999813698657, 1, 36, 18.0, 0, 0, 1230, 0, 1, 1, 0, 0, 1
70, 6, 9, 24.956309234500953, 2, 37, 18.0, 0, 0, 1376, 0, 1, 1, 0, 0, 1
70, 6, 10, 25.01526654413254, 0, 32, 15.0, 1, 5, 1480, 5, 1, 0, 1, 0, 1
70, 6, 11, 24.83054561150786, 0, 32, 15.0, 1, 46, 1568, 46, 1, 1, 1, 1, 1
70, 7, 3, 20.705300734000826, 1, 19, 10.0, 0, 0, 487, 0, 1, 1, 0, 0, 1
70, 7, 4, 20.73015580079045, 1, 25, 14.0, 0, 0, 713, 0, 1, 1, 0, 0, 1
70, 7, 5, 20.47235908901637, 2, 30, 16.0, 0, 0, 996, 0, 1, 1, 0, 0, 1
70, 7, 6, 20.63336154976929, 1, 33, 16.0, 0, 0, 1101, 0, 1, 1, 0, 0, 1
70, 7, 7, 20.34666043683995, 0, 34, 18.0, 1, 48, 1312, 48, 1, 1, 1, 1, 1
70, 7, 8, 20.354478253264226, 2, 33, 18.0, 0, 0, 1440, 0, 1, 1, 0, 0, 1
70, 7, 9, 20.037232999158924, 0, 43, 20.0, 1, 46, 1575, 46, 1, 1, 1, 1, 1
70, 7, 10, 20.045938499719, 1, 32, 16.0, 0, 0, 1661, 0, 1, 1, 0, 0, 1
70, 7, 11, 19.931223799703055, 0, 34, 15.0, 1, 18, 1755, 18, 1, 0, 1, 0, 0
70, 8, 3, 24.70699071381016, 2, 20, 12.0, 0, 0, 591, 0, 1, 0, 0, 0, 0
70, 8, 4, 24.484766772342944, 2, 30, 17.0, 0, 0, 838, 0, 1, 1, 0, 0, 1
70, 8, 5, 24.47275927759476, 2, 34, 19.0, 0, 0, 1142, 0, 1, 0, 0, 0, 1
70, 8, 6, 24.316017927225793, 2, 33, 18.0, 0, 0, 1282, 0, 1, 1, 0, 0, 1
70, 8, 7, 24.32211854075953, 1, 35, 18.0, 0, 0, 1430, 0, 1, 1, 0, 0, 1
70, 8, 8, 24.15841717174713, 0, 38, 18.0, 1, 4, 1561, 4, 1, 0, 1, 0, 1
70, 8, 9, 24.009231516939316, 2, 35, 17.0, 0, 0, 1712, 0, 1, 1, 0, 0, 1
70, 8, 10, 24.003705111252856, 0, 32, 15.0, 1, 111, 1803, 111, 1, 1, 1, 1, 1
70, 8, 11, 23.821489491664835, 1, 31, 14.0, 0, 0, 1860, 0, 1, 0, 0, 0, 1
70, 9, 3, 26.01698135935219, 0, 23, 12.0, 1, 42, 656, 42, 1, 1, 1, 1, 1
70, 9, 4, 25.862007027238853, 2, 31, 16.0, 0, 0, 923, 0, 1, 0, 0, 0, 1
70, 9, 5, 25.92346530457487, 1, 34, 18.0, 0, 0, 1252, 0, 1, 0, 0, 0, 1
70, 9, 6, 25.80154798151639, 1, 36, 18.0, 0, 0, 1426, 0, 1, 1, 0, 0, 1
70, 9, 7, 25.657327539691014, 1, 38, 18.0, 0, 0, 1599, 0, 1, 0, 0, 0, 1
70, 9, 8, 25.488296223009648, 0, 34, 16.0, 1, 18, 1720, 18, 1, 0, 1, 0, 0
70, 9, 9, 25.46994472886996, 1, 33, 16.0, 0, 0, 1817, 0, 1, 1, 0, 0, 1
70, 9, 10, 25.373302812368642, 0, 30, 14.0, 1, 76, 1899, 76, 1, 1, 1, 1, 1
70, 9, 11, 25.342333223324513, 0, 37, 14.0, 1, 144, 1931, 144, 1, 1, 1, 1, 1
70, 10, 3, 14.049080499171174, 1, 25, 15.0, 0, 0, 780, 0, 1, 1, 0, 0, 1
70, 10, 4, 14.040489752869895, 1, 30, 16.0, 0, 0, 1076, 0, 1, 0, 0, 0, 1
70, 10, 5, 14.080070707316775, 1, 31, 17.0, 0, 0, 1377, 0, 1, 0, 0, 0, 1
70, 10, 6, 13.985670523421748, 0, 34, 17.0, 1, 17, 1555, 17, 1, 0, 1, 0, 0
70, 10, 7, 14.086279468317292, 0, 38, 17.0, 1, 59, 1700, 59, 1, 1, 1, 1, 1
70, 10, 8, 14.096199579447962, 0, 34, 14.0, 2, 56, 1758, 68, 1, 1, 1, 1, 1
70, 10, 9, 14.053243871970151, 0, 34, 14.0, 1, 36, 1892, 36, 1, 0, 1, 0, 1
70, 10, 10, 14.072022391349602, 1, 27, 12.0, 0, 0, 1934, 0, 1, 1, 0, 0, 1
70, 10, 11, 14.036536364988478, 0, 30, 10.0, 1, 148, 1979, 148, 1, 1, 1, 1, 1
70, 11, 3, 17.941934833575573, 0, 24, 14.0, 1, 11, 857, 11, 1, 1, 1, 1, 1
70, 11, 4, 17.596505688957766, 0, 33, 17.0, 1, 38, 1137, 38, 1, 1, 1, 1, 0
70, 11, 5, 17.780597224383296, 0, 34, 17.0, 1, 39, 1458, 39, 1, 1, 1, 1, 1
70, 11, 6, 17.671486018517463, 0, 36, 16.0, 1, 89, 1599, 89, 1, 1, 1, 1, 1
70, 11, 7, 17.579012678737218, 0, 35, 15.0, 1, 74, 1732, 74, 1, 1, 1, 1, 1
70, 11, 8, 17.627788405562796, 0, 29, 13.0, 1, 52, 1801, 52, 1, 1, 1, 1, 1
70, 11, 9, 17.57154269414266, 0, 31, 12.0, 1, 134, 1871, 134, 1, 1, 1, 1, 1
70, 11, 10, 17.524965713931216, 0, 30, 10.0, 1, 140, 1947, 140, 1, 1, 1, 1, 1
70, 11, 11, 17.57521616909112, 0, 24, 9.0, 2, 114, 1985, 119, 1, 1, 1, 1, 1
70, 12, 3, 33.00017949505748, 1, 29, 15.0, 0, 0, 896, 0, 1, 1, 0, 0, 1
70, 12, 4, 32.48605317462544, 0, 32, 17.0, 1, 1, 1320, 1, 1, 0, 1, 0, 1
70, 12, 5, 32.63086735860306, 0, 32, 16.0, 1, 58, 1555, 58, 1, 1, 1, 1, 1
70, 12, 6, 32.40317915501449, 0, 35, 15.0, 1, 118, 1677, 118, 1, 1, 1, 1, 1
70, 12, 7, 32.25957193113984, 0, 32, 14.0, 1, 49, 1770, 49, 1, 1, 1, 1, 1
70, 12, 8, 32.19401021824897, 0, 28, 12.0, 1, 122, 1849, 122, 1, 1, 1, 1, 1
70, 12, 9, 32.2145481244992, 0, 28, 11.0, 1, 127, 1865, 127, 1, 1, 1, 1, 1
70, 12, 10, 32.114686176976896, 0, 24, 9.0, 1, 96, 1977, 96, 1, 1, 1, 1, 1
70, 12, 11, 32.20056932292263, 0, 28, 7.0, 1, 120, 1978, 120, 1, 1, 1, 1, 1
70, 13, 3, 19.440700623239124, 1, 26, 14.0, 0, 0, 963, 0, 1, 1, 0, 0, 1
70, 13, 4, 19.47979859661884, 0, 36, 18.0, 1, 2, 1327, 2, 1, 0, 1, 0, 1
70, 13, 5, 19.478495768230744, 0, 28, 15.0, 1, 58, 1676, 58, 1, 1, 1, 1, 1
70, 13, 6, 19.369408499329907, 0, 30, 14.0, 2, 20, 1735, 27, 1, 1, 1, 1, 1
70, 13, 7, 19.275311301910303, 0, 32, 13.0, 1, 58, 1849, 58, 1, 1, 1, 1, 1
70, 13, 8, 19.311821314281897, 0, 27, 11.0, 1, 74, 1869, 74, 1, 1, 1, 1, 1
70, 13, 9, 19.31178817917919, 0, 30, 11.0, 1, 159, 1938, 159, 1, 1, 1, 1, 1
70, 13, 10, 19.290943879458858, 0, 20, 7.0, 2, 147, 2017, 150, 1, 1, 1, 1, 1
70, 13, 11, 19.293884200555357, 0, 25, 7.0, 3, 156, 1989, 171, 1, 1, 1, 1, 1
70, 14, 3, 10.21003745632488, 0, 27, 15.0, 1, 39, 1049, 39, 1, 1, 1, 1, 0
70, 14, 4, 10.216355752591664, 0, 32, 18.0, 1, 12, 1376, 12, 1, 0, 1, 0, 0
70, 14, 5, 10.13500271960924, 1, 30, 15.0, 0, 0, 1740, 0, 1, 1, 0, 0, 1
70, 14, 6, 10.106719608073922, 0, 28, 14.0, 1, 142, 1863, 142, 1, 1, 1, 1, 1
70, 14, 7, 10.060917466253535, 0, 29, 12.0, 2, 72, 1886, 73, 1, 1, 1, 1, 1
70, 14, 8, 10.05228567152414, 0, 26, 10.0, 1, 85, 1929, 85, 1, 1, 1, 1, 1
70, 14, 9, 10.045633936265094, 0, 27, 10.0, 2, 153, 1953, 156, 1, 1, 1, 1, 1
70, 14, 10, 10.036690285385651, 0, 21, 7.0, 2, 150, 2035, 157, 1, 1, 1, 1, 1
70, 14, 11, 10.04232605192563, 0, 23, 5.0, 4, 157, 2019, 171, 1, 1, 1, 1, 1
70, 15, 3, 33.116309552111126, 0, 31, 15.0, 1, 53, 1043, 53, 1, 1, 1, 1, 1
70, 15, 4, 32.84366750810253, 0, 33, 17.0, 1, 1, 1533, 1, 1, 0, 1, 0, 1
70, 15, 5, 32.75239387499078, 0, 28, 14.0, 1, 58, 1762, 58, 1, 1, 1, 1, 1
70, 15, 6, 32.679742102355924, 0, 27, 11.0, 1, 77, 1903, 77, 1, 1, 1, 1, 1
70, 15, 7, 32.63846206222066, 0, 27, 11.0, 1, 91, 1946, 91, 1, 1, 1, 1, 1
70, 15, 8, 32.636861876802946, 0, 23, 9.0, 1, 86, 1966, 86, 1, 1, 1, 1, 1
70, 15, 9, 32.56048509126003, 0, 28, 8.0, 4, 110, 2001, 126, 1, 1, 1, 1, 1
70, 15, 10, 32.5178708012102, 0, 22, 6.0, 3, 132, 2042, 140, 1, 1, 1, 1, 1
70, 15, 11, 32.50557844695364, 0, 22, 5.0, 7, 152, 2038, 192, 1, 1, 1, 1, 1
70, 16, 3, 22.397749443989355, 0, 34, 16.0, 1, 55, 1188, 55, 1, 1, 1, 1, 1
70, 16, 4, 22.066294942357562, 0, 34, 17.0, 1, 15, 1545, 15, 1, 0, 1, 0, 0
70, 16, 5, 21.974650930285776, 0, 31, 15.0, 1, 80, 1840, 80, 1, 1, 1, 1, 1
70, 16, 6, 21.874676408573453, 0, 29, 12.0, 1, 137, 1948, 137, 1, 1, 1, 1, 1
70, 16, 7, 21.863121345537827, 0, 28, 10.0, 1, 79, 1957, 79, 1, 1, 1, 1, 1
70, 16, 8, 21.81519265490912, 0, 23, 8.0, 1, 83, 1971, 83, 1, 1, 1, 1, 1
70, 16, 9, 21.782171916785693, 0, 22, 7.0, 2, 144, 2001, 159, 1, 1, 1, 1, 1
70, 16, 10, 21.749703402710495, 0, 15, 5.0, 4, 153, 2032, 168, 1, 1, 1, 1, 1
70, 16, 11, 21.756701995639336, 0, 16, 4.0, 8, 170, 2032, 256, 1, 1, 1, 1, 1
70, 17, 3, 10.770978317621344, 0, 30, 14.0, 1, 60, 1196, 60, 1, 1, 1, 1, 0
70, 17, 4, 10.6482094690485, 2, 33, 15.0, 0, 0, 1568, 0, 1, 0, 0, 0, 0
70, 17, 5, 10.567081182006918, 0, 31, 14.0, 1, 110, 1871, 110, 1, 1, 1, 1, 1
70, 17, 6, 10.528132971214593, 0, 31, 11.0, 1, 141, 1944, 141, 1, 1, 1, 1, 1
70, 17, 7, 10.512677072988183, 0, 24, 9.0, 1, 152, 1964, 152, 1, 1, 1, 1, 1
70, 17, 8, 10.520889172694329, 0, 22, 7.0, 2, 83, 1993, 110, 1, 1, 1, 1, 1
70, 17, 9, 10.48483347702258, 0, 20, 6.0, 4, 177, 2003, 238, 1, 1, 1, 1, 1
70, 17, 10, 10.479444302694288, 0, 14, 4.0, 7, 157, 2019, 210, 1, 1, 1, 1, 1
70, 17, 11, 10.473192770063259, 0, 17, 3.0, 13, 153, 2031, 351, 1, 1, 1, 1, 1
70, 18, 3, 46.33960408767497, 0, 32, 16.0, 1, 50, 1297, 50, 1, 1, 1, 1, 1
70, 18, 4, 46.13259913287463, 0, 34, 16.0, 1, 18, 1638, 18, 1, 0, 1, 0, 1
70, 18, 5, 45.94533974859458, 0, 29, 13.0, 1, 125, 1896, 125, 1, 1, 1, 1, 1
70, 18, 6, 45.991327463012226, 0, 27, 10.0, 1, 87, 1966, 87, 1, 1, 1, 1, 1
70, 18, 7, 45.93488470673101, 0, 29, 9.0, 1, 85, 2012, 85, 1, 1, 1, 1, 1
70, 18, 8, 45.88298517711817, 0, 23, 7.0, 4, 154, 2015, 199, 1, 1, 1, 1, 1
70, 18, 9, 45.87199194756954, 0, 23, 6.0, 4, 150, 2028, 215, 1, 1, 1, 1, 1
70, 18, 10, 45.83630988223077, 0, 16, 3.0, 10, 160, 2037, 321, 1, 1, 1, 1, 1
70, 18, 11, 45.82526609782653, 0, 14, 3.0, 9, 146, 2042, 322, 1, 1, 1, 1, 1
70, 19, 3, 40.62618005902714, 0, 29, 15.0, 1, 52, 1332, 52, 1, 1, 1, 1, 1
70, 19, 4, 40.4922835796228, 0, 35, 15.0, 1, 77, 1629, 77, 1, 1, 1, 1, 1
70, 19, 5, 40.17626655794242, 0, 25, 11.0, 1, 114, 1888, 114, 1, 1, 1, 1, 1
70, 19, 6, 40.105325486109145, 0, 23, 9.0, 4, 96, 1993, 115, 1, 1, 1, 1, 1
70, 19, 7, 40.084099739143994, 0, 24, 8.0, 3, 136, 2006, 160, 1, 1, 1, 1, 1
70, 19, 8, 39.99272041925584, 0, 21, 6.0, 5, 143, 2015, 154, 1, 1, 1, 1, 1
70, 19, 9, 39.999933495711446, 0, 16, 4.0, 9, 174, 2027, 394, 1, 1, 1, 1, 1
70, 19, 10, 39.95836965468172, 0, 15, 3.0, 9, 168, 2032, 333, 1, 1, 1, 1, 1
70, 19, 11, 39.966427741927376, 0, 16, 3.0, 8, 159, 2027, 266, 1, 1, 1, 1, 1
75, 3, 3, 45.224885971235494, 3, 14, 7.0, 0, 0, 192, 0, 0, 1, 0, 0, 1
75, 3, 4, 43.65950430970618, 5, 18, 11.0, 0, 0, 194, 0, 0, 1, 0, 0, 1
75, 3, 5, 44.519816319541334, 1, 18, 8.0, 0, 0, 305, 0, 0, 1, 0, 0, 1
75, 3, 6, 43.77977082958982, 4, 21, 11.0, 0, 0, 323, 0, 0, 1, 0, 0, 1
75, 3, 7, 43.86975589004583, 5, 22, 13.0, 0, 0, 460, 0, 0, 1, 0, 0, 1
75, 3, 8, 43.599386996990944, 4, 27, 14.0, 0, 0, 479, 0, 0, 1, 0, 0, 1
75, 3, 9, 44.28992086444067, 4, 26, 14.0, 0, 0, 551, 0, 1, 1, 0, 0, 1
75, 3, 10, 44.75754740357764, 3, 22, 12.0, 0, 0, 570, 0, 0, 1, 0, 0, 1
75, 3, 11, 43.89857589863422, 4, 21, 14.0, 0, 0, 671, 0, 0, 1, 0, 0, 1
75, 4, 3, 37.13551289248562, 3, 19, 8.0, 0, 0, 223, 0, 0, 1, 0, 0, 1
75, 4, 4, 36.707295795313975, 1, 17, 8.0, 0, 0, 306, 0, 0, 1, 0, 0, 1
75, 4, 5, 35.934413745832025, 3, 22, 13.0, 0, 0, 547, 0, 1, 1, 0, 0, 1
75, 4, 6, 36.103120704043626, 2, 22, 12.0, 0, 0, 577, 0, 0, 1, 0, 0, 1
75, 4, 7, 35.99636781068408, 2, 24, 14.0, 0, 0, 742, 0, 1, 0, 0, 0, 1
75, 4, 8, 35.87300919420721, 2, 25, 15.0, 0, 0, 738, 0, 1, 1, 0, 0, 1
75, 4, 9, 35.92989869383522, 1, 28, 17.0, 0, 0, 950, 0, 0, 1, 0, 0, 1
75, 4, 10, 35.82000660514834, 3, 25, 15.0, 0, 0, 977, 0, 0, 1, 0, 0, 1
75, 4, 11, 35.96918972564605, 2, 29, 17.0, 0, 0, 1044, 0, 1, 1, 0, 0, 0
75, 5, 3, 30.537701943097233, 3, 22, 11.0, 0, 0, 293, 0, 0, 1, 0, 0, 1
75, 5, 4, 30.89803200095651, 4, 23, 12.0, 0, 0, 483, 0, 0, 1, 0, 0, 1
75, 5, 5, 31.154207409958012, 2, 26, 14.0, 0, 0, 697, 0, 1, 1, 0, 0, 1
75, 5, 6, 30.751464425846674, 3, 27, 15.0, 0, 0, 788, 0, 1, 1, 0, 0, 1
75, 5, 7, 30.415543946631725, 4, 32, 16.0, 0, 0, 888, 0, 0, 1, 0, 0, 1
75, 5, 8, 30.33554943472318, 1, 33, 17.0, 0, 0, 1102, 0, 1, 0, 0, 0, 0
75, 5, 9, 30.295009467287223, 1, 31, 20.0, 0, 0, 1200, 0, 1, 0, 0, 0, 1
75, 5, 10, 30.079747358233675, 2, 33, 18.0, 0, 0, 1355, 0, 1, 0, 0, 0, 1
75, 5, 11, 30.105008033722868, 0, 29, 17.0, 1, 2, 1380, 2, 1, 0, 1, 0, 1
75, 6, 3, 28.61823789657183, 4, 21, 13.0, 0, 0, 438, 0, 0, 1, 0, 0, 1
75, 6, 4, 28.001021774487885, 3, 27, 13.0, 0, 0, 647, 0, 1, 1, 0, 0, 1
75, 6, 5, 27.095274935839797, 4, 30, 16.0, 0, 0, 869, 0, 1, 1, 0, 0, 1
75, 6, 6, 27.725264899440987, 2, 28, 17.0, 0, 0, 1011, 0, 1, 1, 0, 0, 1
75, 6, 7, 27.344483509194518, 1, 31, 18.0, 0, 0, 1109, 0, 1, 0, 0, 0, 1
75, 6, 8, 27.39440611557571, 2, 33, 18.0, 0, 0, 1287, 0, 1, 1, 0, 0, 1
75, 6, 9, 27.168910812028038, 0, 33, 18.0, 1, 39, 1409, 39, 1, 1, 1, 1, 1
75, 6, 10, 26.756610359783345, 3, 35, 18.0, 0, 0, 1555, 0, 1, 1, 0, 0, 1
75, 6, 11, 26.824177051281747, 0, 32, 17.0, 1, 51, 1620, 51, 1, 1, 1, 1, 1
75, 7, 3, 26.926897012680513, 2, 23, 10.0, 0, 0, 505, 0, 1, 0, 0, 0, 1
75, 7, 4, 26.332373271362638, 1, 31, 15.0, 0, 0, 779, 0, 1, 1, 0, 0, 1
75, 7, 5, 26.476499519127785, 5, 34, 19.0, 0, 0, 1062, 0, 1, 1, 0, 0, 1
75, 7, 6, 26.234813459889313, 1, 30, 17.0, 0, 0, 1166, 0, 1, 0, 0, 0, 1
75, 7, 7, 26.278162938249128, 1, 35, 17.0, 0, 0, 1258, 0, 1, 1, 0, 0, 0
75, 7, 8, 26.2338927876177, 3, 38, 20.0, 0, 0, 1484, 0, 1, 1, 0, 0, 1
75, 7, 9, 25.98981163165692, 1, 37, 20.0, 0, 0, 1565, 0, 1, 1, 0, 0, 1
75, 7, 10, 25.882410873130333, 0, 35, 17.0, 1, 45, 1684, 45, 1, 1, 1, 1, 1
75, 7, 11, 25.78777353347685, 1, 33, 16.0, 0, 0, 1765, 0, 1, 1, 0, 0, 1
75, 8, 3, 22.306108008320656, 2, 22, 11.0, 0, 0, 584, 0, 1, 1, 0, 0, 1
75, 8, 4, 21.91153072921232, 1, 30, 15.0, 0, 0, 859, 0, 1, 0, 0, 0, 1
75, 8, 5, 21.796471197125314, 3, 36, 20.0, 0, 0, 1200, 0, 1, 1, 0, 0, 1
75, 8, 6, 21.854887403762547, 2, 34, 17.0, 0, 0, 1306, 0, 1, 1, 0, 0, 1
75, 8, 7, 21.69484933092724, 1, 39, 18.0, 0, 0, 1427, 0, 1, 0, 0, 0, 1
75, 8, 8, 21.624446806359703, 1, 38, 18.0, 0, 0, 1675, 0, 1, 1, 0, 0, 1
75, 8, 9, 21.502371270530897, 0, 38, 19.0, 1, 43, 1719, 43, 1, 1, 1, 1, 1
75, 8, 10, 21.413164687595742, 1, 31, 15.0, 0, 0, 1837, 0, 1, 1, 0, 0, 1
75, 8, 11, 21.302477356993993, 0, 30, 15.0, 1, 51, 1907, 51, 1, 1, 1, 1, 1
75, 9, 3, 19.970892067788238, 2, 22, 12.0, 0, 0, 640, 0, 1, 1, 0, 0, 0
75, 9, 4, 19.825084923676307, 0, 32, 19.0, 1, 9, 970, 9, 1, 0, 1, 0, 1
75, 9, 5, 19.972073759378258, 2, 32, 19.0, 0, 0, 1288, 0, 1, 0, 0, 0, 1
75, 9, 6, 19.952551838613452, 0, 38, 18.0, 1, 40, 1412, 40, 1, 1, 1, 1, 1
75, 9, 7, 19.801846296345463, 1, 38, 19.0, 0, 0, 1607, 0, 1, 1, 0, 0, 1
75, 9, 8, 19.699468991933884, 1, 38, 18.0, 0, 0, 1795, 0, 1, 1, 0, 0, 1
75, 9, 9, 19.670859590024506, 0, 33, 16.0, 1, 43, 1832, 43, 1, 1, 1, 1, 1
75, 9, 10, 19.629724528895384, 0, 34, 15.0, 2, 45, 1914, 60, 1, 1, 1, 1, 1
75, 9, 11, 19.524167621928576, 0, 36, 14.0, 1, 48, 2024, 48, 1, 1, 1, 1, 1
75, 10, 3, 22.44669218737703, 0, 23, 13.0, 1, 15, 720, 15, 1, 0, 1, 0, 0
75, 10, 4, 22.371412427380513, 2, 33, 18.0, 0, 0, 1112, 0, 1, 0, 0, 0, 1
75, 10, 5, 22.31246502860231, 2, 39, 18.0, 0, 0, 1465, 0, 1, 1, 0, 0, 1
75, 10, 6, 22.29282848596276, 2, 39, 19.0, 0, 0, 1605, 0, 1, 1, 0, 0, 1
75, 10, 7, 22.099078237936126, 0, 34, 17.0, 1, 73, 1701, 73, 1, 1, 1, 1, 1
75, 10, 8, 22.12396414854288, 0, 37, 17.0, 1, 7, 1878, 7, 1, 0, 1, 0, 1
75, 10, 9, 21.988649503466455, 0, 34, 16.0, 1, 105, 1985, 105, 1, 1, 1, 1, 1
75, 10, 10, 21.99863535515007, 0, 29, 11.0, 1, 116, 2008, 116, 1, 1, 1, 1, 1
75, 10, 11, 21.954687601308198, 0, 26, 11.0, 1, 111, 2052, 111, 1, 1, 1, 1, 1
75, 11, 3, 32.12050836599801, 0, 26, 15.0, 1, 47, 855, 47, 1, 1, 1, 1, 1
75, 11, 4, 31.632303541021, 1, 35, 18.0, 0, 0, 1193, 0, 1, 1, 0, 0, 1
75, 11, 5, 31.71514030373955, 0, 35, 19.0, 1, 49, 1479, 49, 1, 1, 1, 1, 1
75, 11, 6, 31.59394006907891, 0, 38, 18.0, 1, 57, 1692, 57, 1, 1, 1, 1, 1
75, 11, 7, 31.392326109211538, 0, 38, 16.0, 1, 61, 1766, 61, 1, 1, 1, 1, 1
75, 11, 8, 31.425837524339272, 0, 31, 13.0, 1, 80, 1914, 80, 1, 1, 1, 1, 1
75, 11, 9, 31.376783876611803, 0, 33, 14.0, 1, 105, 1963, 105, 1, 1, 1, 1, 1
75, 11, 10, 31.376185970245093, 0, 31, 11.0, 1, 134, 2011, 134, 1, 1, 1, 1, 1
75, 11, 11, 31.34903247568514, 0, 28, 9.0, 2, 107, 2055, 110, 1, 1, 1, 1, 1
75, 12, 3, 16.409488281002343, 2, 29, 16.0, 0, 0, 956, 0, 1, 0, 0, 0, 1
75, 12, 4, 16.284046584455687, 1, 32, 17.0, 0, 0, 1260, 0, 1, 0, 0, 0, 1
75, 12, 5, 16.463097676792927, 0, 34, 18.0, 1, 35, 1596, 35, 1, 1, 1, 1, 1
75, 12, 6, 16.29111535263748, 0, 30, 15.0, 1, 74, 1746, 74, 1, 1, 1, 1, 1
75, 12, 7, 16.224054329808453, 0, 33, 16.0, 1, 113, 1862, 113, 1, 1, 1, 1, 1
75, 12, 8, 16.260082598695778, 0, 30, 13.0, 1, 82, 1917, 82, 1, 1, 1, 1, 1
75, 12, 9, 16.245521852010178, 0, 28, 11.0, 1, 132, 1952, 132, 1, 1, 1, 1, 1
75, 12, 10, 16.214630871802484, 0, 27, 10.0, 1, 134, 2043, 134, 1, 1, 1, 1, 1
75, 12, 11, 16.181011642710565, 0, 25, 7.0, 2, 150, 2053, 174, 1, 1, 1, 1, 1
75, 13, 3, 34.6560439699033, 1, 29, 14.0, 0, 0, 997, 0, 1, 0, 0, 0, 1
75, 13, 4, 34.04773718093214, 0, 35, 19.0, 1, 2, 1382, 2, 1, 0, 1, 0, 0
75, 13, 5, 34.26762737567742, 0, 35, 17.0, 1, 10, 1667, 10, 1, 0, 1, 0, 1
75, 13, 6, 34.06346242303726, 0, 33, 13.0, 1, 62, 1763, 62, 1, 1, 1, 1, 1
75, 13, 7, 33.852717699949764, 0, 29, 13.0, 1, 137, 1855, 137, 1, 1, 1, 1, 1
75, 13, 8, 33.8524197619276, 0, 25, 11.0, 1, 59, 1957, 59, 1, 1, 1, 1, 1
75, 13, 9, 33.88451419235303, 0, 27, 9.0, 1, 145, 1982, 145, 1, 1, 1, 1, 1
75, 13, 10, 33.867729322534146, 0, 23, 9.0, 1, 127, 2062, 127, 1, 1, 1, 1, 1
75, 13, 11, 33.846234134918085, 0, 25, 7.0, 3, 141, 2103, 167, 1, 1, 1, 1, 1
75, 14, 3, 20.511285954624913, 1, 26, 15.0, 0, 0, 1034, 0, 1, 0, 0, 0, 1
75, 14, 4, 20.564348406702965, 0, 35, 18.0, 1, 3, 1427, 3, 1, 0, 1, 0, 1
75, 14, 5, 20.450581378942292, 0, 35, 16.0, 1, 43, 1798, 43, 1, 1, 1, 1, 1
75, 14, 6, 20.447690409721897, 0, 30, 13.0, 1, 65, 1883, 65, 1, 1, 1, 1, 1
75, 14, 7, 20.378846840029265, 0, 32, 13.0, 1, 111, 1895, 111, 1, 1, 1, 1, 1
75, 14, 8, 20.346786950316634, 0, 25, 11.0, 1, 79, 2023, 79, 1, 1, 1, 1, 1
75, 14, 9, 20.33777145877545, 0, 31, 10.0, 1, 159, 2047, 159, 1, 1, 1, 1, 1
75, 14, 10, 20.336876082066112, 0, 20, 7.0, 1, 125, 2079, 125, 1, 1, 1, 1, 1
75, 14, 11, 20.332852235829915, 0, 25, 6.0, 4, 139, 2097, 152, 1, 1, 1, 1, 1
75, 15, 3, 10.741436925404066, 0, 32, 15.0, 1, 42, 1115, 42, 1, 1, 1, 1, 0
75, 15, 4, 10.748144021678806, 0, 31, 16.0, 1, 10, 1450, 10, 1, 0, 1, 0, 0
75, 15, 5, 10.708967120552146, 0, 34, 17.0, 1, 49, 1884, 49, 1, 1, 1, 1, 1
75, 15, 6, 10.651665510673473, 0, 32, 13.0, 1, 128, 1956, 128, 1, 1, 1, 1, 1
75, 15, 7, 10.606256542130719, 0, 28, 12.0, 1, 111, 1953, 111, 1, 1, 1, 1, 1
75, 15, 8, 10.614934608672577, 0, 25, 10.0, 1, 132, 2030, 132, 1, 1, 1, 1, 1
75, 15, 9, 10.606864226510037, 0, 25, 9.0, 2, 139, 2032, 140, 1, 1, 1, 1, 1
75, 15, 10, 10.583464673689948, 0, 25, 7.0, 1, 125, 2123, 125, 1, 1, 1, 1, 1
75, 15, 11, 10.586213685925973, 0, 18, 5.0, 6, 149, 2123, 174, 1, 1, 1, 1, 1
75, 16, 3, 37.37734142180071, 0, 32, 16.0, 1, 44, 1155, 44, 1, 1, 1, 1, 1
75, 16, 4, 36.93609088833397, 0, 36, 18.0, 1, 3, 1650, 3, 1, 0, 1, 0, 0
75, 16, 5, 37.01971021697675, 0, 30, 15.0, 1, 17, 1878, 17, 0, 1, 0, 1, 1
75, 16, 6, 36.85403751714874, 0, 31, 12.0, 1, 56, 2019, 56, 1, 1, 1, 1, 1
75, 16, 7, 36.800619481417165, 0, 32, 11.0, 1, 138, 2013, 138, 1, 1, 1, 1, 1
75, 16, 8, 36.785024971418764, 0, 22, 8.0, 1, 78, 2091, 78, 1, 1, 1, 1, 1
75, 16, 9, 36.75511739838214, 0, 27, 8.0, 5, 150, 2101, 183, 1, 1, 1, 1, 1
75, 16, 10, 36.75318623104676, 0, 21, 6.0, 4, 142, 2104, 211, 1, 1, 1, 1, 1
75, 16, 11, 36.73701468924677, 0, 18, 5.0, 4, 150, 2120, 181, 1, 1, 1, 1, 1
75, 17, 3, 26.547100857815874, 0, 33, 16.0, 1, 36, 1205, 36, 1, 0, 1, 0, 1
75, 17, 4, 26.233452874131608, 0, 38, 17.0, 1, 18, 1671, 18, 1, 0, 1, 0, 1
75, 17, 5, 26.181398477077526, 0, 33, 14.0, 1, 118, 1936, 118, 1, 1, 1, 1, 1
75, 17, 6, 26.120314084216993, 0, 34, 12.0, 1, 126, 2016, 126, 1, 1, 1, 1, 1
75, 17, 7, 26.027884917232104, 0, 35, 11.0, 2, 139, 2049, 147, 1, 1, 1, 1, 1
75, 17, 8, 26.051553028654908, 0, 21, 7.0, 3, 130, 2063, 145, 1, 1, 1, 1, 1
75, 17, 9, 25.98326403398989, 0, 22, 7.0, 7, 142, 2106, 208, 1, 1, 1, 1, 1
75, 17, 10, 25.945585832492235, 0, 21, 5.0, 7, 149, 2100, 204, 1, 1, 1, 1, 1
75, 17, 11, 25.935600550938798, 0, 16, 3.0, 10, 159, 2115, 275, 1, 1, 1, 1, 1
75, 18, 3, 14.018973920438302, 0, 31, 16.0, 1, 60, 1313, 60, 1, 1, 1, 1, 1
75, 18, 4, 13.923965999166645, 0, 34, 16.0, 1, 18, 1658, 18, 1, 0, 1, 0, 1
75, 18, 5, 13.806681463182485, 0, 32, 14.0, 1, 83, 1952, 83, 1, 1, 1, 1, 1
75, 18, 6, 13.791266295788997, 0, 32, 12.0, 1, 123, 2051, 123, 1, 1, 1, 1, 1
75, 18, 7, 13.761012145153698, 0, 24, 9.0, 1, 135, 2061, 135, 1, 1, 1, 1, 1
75, 18, 8, 13.765535697150192, 0, 18, 6.0, 3, 99, 2093, 130, 1, 1, 1, 1, 1
75, 18, 9, 13.734083671532549, 0, 19, 6.0, 5, 165, 2113, 239, 1, 1, 1, 1, 1
75, 18, 10, 13.717187437172619, 0, 17, 4.0, 10, 151, 2102, 264, 1, 1, 1, 1, 1
75, 18, 11, 13.715345083937875, 0, 15, 3.0, 8, 146, 2099, 342, 1, 1, 1, 1, 1
75, 19, 3, 52.12858718298254, 0, 31, 15.0, 1, 38, 1345, 38, 1, 0, 1, 0, 1
75, 19, 4, 52.04142007036297, 0, 31, 16.0, 1, 19, 1769, 19, 1, 0, 1, 0, 1
75, 19, 5, 51.87807638036772, 0, 32, 12.0, 1, 135, 1978, 135, 1, 1, 1, 1, 1
75, 19, 6, 51.69742618583292, 0, 26, 10.0, 1, 121, 2057, 121, 1, 1, 1, 1, 1
75, 19, 7, 51.740549487724756, 0, 25, 9.0, 1, 136, 2075, 136, 1, 1, 1, 1, 1
75, 19, 8, 51.693382055927025, 0, 20, 6.0, 4, 132, 2093, 218, 1, 1, 1, 1, 1
75, 19, 9, 51.64831323524065, 0, 24, 6.0, 5, 175, 2110, 242, 1, 1, 1, 1, 1
75, 19, 10, 51.66774049924479, 0, 15, 4.0, 6, 150, 2106, 166, 1, 1, 1, 1, 1
75, 19, 11, 51.6508393296522, 0, 16, 2.0, 9, 185, 2103, 414, 1, 1, 1, 1, 1
80, 3, 3, 50.56456527344936, 3, 12, 6.0, 0, 0, 164, 0, 0, 1, 0, 0, 1
80, 3, 4, 47.72975067191871, 4, 17, 9.0, 0, 0, 167, 0, 0, 1, 0, 0, 1
80, 3, 5, 48.40898685666102, 5, 22, 11.0, 0, 0, 313, 0, 1, 1, 0, 0, 1
80, 3, 6, 48.17069479847316, 4, 19, 10.0, 0, 0, 281, 0, 0, 1, 0, 0, 1
80, 3, 7, 47.444527611805356, 3, 23, 14.0, 0, 0, 455, 0, 0, 1, 0, 0, 1
80, 3, 8, 47.76566119800224, 5, 26, 15.0, 0, 0, 457, 0, 0, 1, 0, 0, 1
80, 3, 9, 48.69282007207028, 4, 25, 14.0, 0, 0, 527, 0, 0, 1, 0, 0, 1
80, 3, 10, 48.63919227039253, 8, 24, 14.0, 0, 0, 557, 0, 0, 1, 0, 0, 1
80, 3, 11, 47.86159708962651, 5, 30, 16.0, 0, 0, 710, 0, 0, 1, 0, 0, 1
80, 4, 3, 40.00258191104169, 2, 18, 9.0, 0, 0, 236, 0, 0, 1, 0, 0, 1
80, 4, 4, 39.26227104905128, 2, 21, 12.0, 0, 0, 379, 0, 1, 0, 0, 0, 1
80, 4, 5, 38.61404435736043, 1, 25, 14.0, 0, 0, 550, 0, 1, 0, 0, 0, 1
80, 4, 6, 38.53477622311766, 4, 26, 14.0, 0, 0, 626, 0, 0, 1, 0, 0, 1
80, 4, 7, 38.68718877754758, 5, 28, 16.0, 0, 0, 730, 0, 0, 1, 0, 0, 1
80, 4, 8, 38.56578158502128, 1, 28, 16.0, 0, 0, 803, 0, 0, 1, 0, 0, 1
80, 4, 9, 38.50160743062314, 2, 30, 17.0, 0, 0, 929, 0, 1, 1, 0, 0, 1
80, 4, 10, 38.50993615721788, 1, 33, 18.0, 0, 0, 1024, 0, 1, 0, 0, 0, 1
80, 4, 11, 38.4471308396001, 3, 33, 19.0, 0, 0, 1035, 0, 1, 1, 0, 0, 1
80, 5, 3, 33.49603982916898, 4, 24, 10.0, 0, 0, 298, 0, 0, 1, 0, 0, 1
80, 5, 4, 34.30884107686747, 4, 23, 13.0, 0, 0, 537, 0, 1, 1, 0, 0, 1
80, 5, 5, 34.036485632868974, 3, 24, 15.0, 0, 0, 664, 0, 1, 1, 0, 0, 1
80, 5, 6, 33.79894684618158, 2, 30, 18.0, 0, 0, 809, 0, 0, 1, 0, 0, 1
80, 5, 7, 33.71054581918196, 1, 27, 16.0, 0, 0, 902, 0, 1, 0, 0, 0, 1
80, 5, 8, 33.480745737732526, 2, 30, 19.0, 0, 0, 1121, 0, 1, 1, 0, 0, 0
80, 5, 9, 33.31027849675236, 2, 34, 20.0, 0, 0, 1232, 0, 1, 0, 0, 0, 1
80, 5, 10, 33.18509876582715, 3, 34, 20.0, 0, 0, 1344, 0, 1, 0, 0, 0, 1
80, 5, 11, 33.05044618163109, 1, 32, 19.0, 0, 0, 1427, 0, 1, 0, 0, 0, 0
80, 6, 3, 30.757774606867034, 3, 22, 12.0, 0, 0, 444, 0, 0, 1, 0, 0, 1
80, 6, 4, 30.288265155570503, 3, 24, 15.0, 0, 0, 630, 0, 1, 0, 0, 0, 1
80, 6, 5, 29.530945342443733, 5, 27, 15.0, 0, 0, 844, 0, 1, 1, 0, 0, 1
80, 6, 6, 30.16102135994498, 3, 30, 16.0, 0, 0, 966, 0, 1, 1, 0, 0, 1
80, 6, 7, 29.628965381719134, 1, 31, 18.0, 0, 0, 1080, 0, 1, 1, 0, 0, 0
80, 6, 8, 29.68782560782022, 1, 34, 18.0, 0, 0, 1290, 0, 1, 0, 0, 0, 1
80, 6, 9, 29.348135594603093, 2, 34, 19.0, 0, 0, 1418, 0, 1, 1, 0, 0, 1
80, 6, 10, 29.090211132846086, 1, 33, 19.0, 0, 0, 1541, 0, 1, 1, 0, 0, 1
80, 6, 11, 29.109245434102952, 1, 36, 18.0, 0, 0, 1600, 0, 1, 0, 0, 0, 1
80, 7, 3, 27.430119092269354, 4, 23, 11.0, 0, 0, 504, 0, 0, 1, 0, 0, 1
80, 7, 4, 27.284996805958762, 1, 30, 17.0, 0, 0, 776, 0, 1, 0, 0, 0, 1
80, 7, 5, 26.57569824437783, 4, 31, 19.0, 0, 0, 1088, 0, 1, 1, 0, 0, 1
80, 7, 6, 26.92434432536287, 1, 31, 19.0, 0, 0, 1178, 0, 1, 1, 0, 0, 1
80, 7, 7, 26.84206411630816, 3, 33, 18.0, 0, 0, 1258, 0, 1, 0, 0, 0, 1
80, 7, 8, 26.663691054345573, 1, 39, 21.0, 0, 0, 1482, 0, 1, 1, 0, 0, 1
80, 7, 9, 26.367836768044572, 1, 39, 20.0, 0, 0, 1553, 0, 1, 1, 0, 0, 1
80, 7, 10, 26.285980247977054, 0, 36, 18.0, 1, 3, 1720, 3, 1, 0, 1, 0, 0
80, 7, 11, 26.25074003122953, 0, 35, 16.0, 1, 42, 1759, 42, 1, 1, 1, 1, 1
80, 8, 3, 22.978762753476023, 1, 22, 12.0, 0, 0, 566, 0, 1, 0, 0, 0, 1
80, 8, 4, 22.657585022908044, 2, 30, 17.0, 0, 0, 881, 0, 1, 0, 0, 0, 1
80, 8, 5, 22.647545744509642, 4, 36, 20.0, 0, 0, 1205, 0, 1, 1, 0, 0, 1
80, 8, 6, 22.565173591418095, 1, 36, 19.0, 0, 0, 1352, 0, 1, 1, 0, 0, 1
80, 8, 7, 22.45247340430056, 1, 40, 20.0, 0, 0, 1506, 0, 1, 1, 0, 0, 0
80, 8, 8, 22.30747298909822, 1, 36, 20.0, 0, 0, 1693, 0, 1, 0, 0, 0, 1
80, 8, 9, 22.199780343989666, 0, 41, 20.0, 1, 38, 1720, 38, 1, 1, 1, 1, 1
80, 8, 10, 22.154250028714532, 0, 38, 18.0, 1, 37, 1853, 37, 1, 1, 1, 1, 1
80, 8, 11, 21.98565281098365, 0, 32, 15.0, 1, 80, 1983, 80, 1, 1, 1, 1, 1
80, 9, 3, 31.844299450582657, 0, 23, 12.0, 1, 29, 629, 29, 1, 0, 1, 0, 1
80, 9, 4, 31.71167275030913, 1, 31, 19.0, 0, 0, 1037, 0, 1, 0, 0, 0, 1
80, 9, 5, 31.53145179383525, 0, 37, 21.0, 1, 38, 1322, 38, 1, 1, 1, 1, 1
80, 9, 6, 31.478392652340837, 0, 37, 20.0, 1, 52, 1469, 52, 1, 1, 1, 1, 1
80, 9, 7, 31.34190841898117, 0, 37, 20.0, 1, 6, 1650, 6, 1, 0, 1, 0, 0
80, 9, 8, 31.242362375359846, 0, 35, 18.0, 1, 17, 1822, 17, 1, 0, 1, 0, 1
80, 9, 9, 31.0949114010572, 0, 36, 18.0, 1, 41, 1861, 41, 1, 1, 1, 1, 1
80, 9, 10, 31.038270941026827, 0, 33, 18.0, 1, 40, 1991, 40, 1, 1, 1, 1, 1
80, 9, 11, 30.892480924308096, 0, 33, 14.0, 1, 125, 2036, 125, 1, 1, 1, 1, 1
80, 10, 3, 17.66538723967393, 3, 24, 13.0, 0, 0, 687, 0, 1, 0, 0, 0, 1
80, 10, 4, 17.755555741668534, 0, 34, 18.0, 1, 52, 1098, 52, 1, 1, 1, 1, 1
80, 10, 5, 17.851403759567855, 2, 39, 21.0, 0, 0, 1431, 0, 1, 1, 0, 0, 1
80, 10, 6, 17.93997832099135, 1, 38, 19.0, 0, 0, 1622, 0, 1, 1, 0, 0, 1
80, 10, 7, 17.929865408448453, 1, 36, 20.0, 0, 0, 1738, 0, 1, 0, 0, 0, 1
80, 10, 8, 17.816183056467054, 0, 37, 18.0, 1, 60, 1974, 60, 1, 1, 1, 1, 1
80, 10, 9, 17.776762997848245, 0, 43, 17.0, 1, 51, 1991, 51, 1, 1, 1, 1, 1
80, 10, 10, 17.757561465548534, 0, 32, 14.0, 1, 53, 2046, 53, 1, 1, 1, 1, 1
80, 10, 11, 17.707891480216567, 0, 35, 13.0, 1, 126, 2124, 126, 1, 1, 1, 1, 1
80, 11, 3, 19.05175636852837, 2, 30, 16.0, 0, 0, 822, 0, 1, 0, 0, 0, 1
80, 11, 4, 18.989054029608898, 1, 34, 19.0, 0, 0, 1226, 0, 1, 0, 0, 0, 1
80, 11, 5, 18.881099850096007, 1, 36, 19.0, 0, 0, 1552, 0, 1, 1, 0, 0, 1
80, 11, 6, 18.848520350209178, 0, 38, 17.0, 1, 60, 1695, 60, 1, 1, 1, 1, 1
80, 11, 7, 18.771398042807956, 0, 42, 19.0, 1, 105, 1854, 105, 1, 1, 1, 1, 1
80, 11, 8, 18.791577957168375, 0, 35, 15.0, 1, 18, 1954, 18, 1, 0, 1, 0, 1
80, 11, 9, 18.723596981815394, 0, 40, 15.0, 1, 81, 2019, 81, 1, 1, 1, 1, 1
80, 11, 10, 18.74980982139411, 0, 33, 12.0, 1, 99, 2090, 99, 1, 1, 1, 1, 1
80, 11, 11, 18.732165035370482, 0, 27, 10.0, 1, 113, 2122, 113, 1, 1, 1, 1, 1
80, 12, 3, 30.617450274686487, 0, 28, 15.0, 1, 28, 877, 28, 1, 0, 1, 0, 0
80, 12, 4, 30.469224514358682, 0, 29, 17.0, 1, 5, 1326, 5, 1, 0, 1, 0, 0
80, 12, 5, 30.66819495059299, 0, 33, 18.0, 1, 65, 1655, 65, 1, 1, 1, 1, 1
80, 12, 6, 30.447299134534855, 0, 41, 18.0, 1, 110, 1801, 110, 1, 1, 1, 1, 1
80, 12, 7, 30.328294132799694, 0, 32, 15.0, 1, 69, 1812, 69, 1, 1, 1, 1, 1
80, 12, 8, 30.282522022128532, 0, 32, 15.0, 1, 79, 2018, 79, 1, 1, 1, 1, 1
80, 12, 9, 30.266842436798957, 0, 31, 13.0, 2, 43, 2024, 61, 1, 1, 1, 1, 1
80, 12, 10, 30.275062373571078, 0, 32, 10.0, 1, 135, 2100, 135, 1, 1, 1, 1, 1
80, 12, 11, 30.266511921965094, 0, 24, 9.0, 1, 111, 2129, 111, 1, 1, 1, 1, 1
80, 13, 3, 15.309364052989766, 2, 28, 15.0, 0, 0, 1001, 0, 1, 1, 0, 0, 1
80, 13, 4, 15.225922490751655, 1, 34, 18.0, 0, 0, 1454, 0, 1, 0, 0, 0, 1
80, 13, 5, 15.328524688036712, 0, 40, 18.0, 1, 68, 1717, 68, 1, 1, 1, 1, 1
80, 13, 6, 15.220403616938388, 0, 40, 15.0, 1, 121, 1804, 121, 1, 1, 1, 1, 1
80, 13, 7, 15.203246963882673, 0, 29, 14.0, 1, 105, 1942, 105, 1, 1, 1, 1, 1
80, 13, 8, 15.143196391324722, 0, 25, 11.0, 1, 64, 2014, 64, 1, 1, 1, 1, 1
80, 13, 9, 15.166147627401346, 0, 37, 14.0, 1, 117, 2055, 117, 1, 1, 1, 1, 1
