-0.300
-0.285
-0.285
-0.280
-0.255
-0.265
-0.280
-0.260
-0.240
-0.235
-0.220
-0.225
-0.245
-0.235
-0.235
-0.230
-0.240
-0.255
-0.255
-0.260
-0.250
-0.255
-0.265
-0.250
-0.245
-0.235
-0.250
-0.265
-0.280
-0.300
-0.320
-0.335
-0.340
-0.335
-0.335
-0.355
-0.370
-0.360
-0.350
-0.330
-0.340
-0.350
-0.360
-0.350
-0.345
-0.345
-0.335
-0.355
-0.360
-0.365
-0.355
-0.350
-0.355
-0.365
-0.370
-0.360
-0.355
-0.355
-0.355
-0.375
-0.390
-0.410
-0.435
-0.460
-0.475
-0.510
-0.555
-0.560
-0.500
-0.375
-0.235
-0.085
0.105
0.390
0.660
0.865
0.920
0.820
0.505
0.100
-0.255
-0.430
-0.485
-0.465
-0.425
-0.390
-0.365
-0.370
-0.375
-0.370
-0.390
-0.380
-0.380
-0.365
-0.375
-0.380
-0.395
-0.395
-0.385
-0.375
-0.380
-0.390
-0.395
-0.400
-0.390
-0.385
-0.385
-0.395
-0.405
-0.400
-0.385
-0.380
-0.385
-0.395
-0.410
-0.410
-0.390
-0.395
-0.385
-0.395
-0.390
-0.385
-0.375
-0.370
-0.375
-0.380
-0.390
-0.390
-0.385
-0.385
-0.385
-0.380
-0.380
-0.390
-0.385
-0.375
-0.370
-0.385
-0.395
-0.395
-0.380
-0.360
-0.365
-0.375
-0.380
-0.370
-0.375
-0.370
-0.360
-0.380
-0.385
-0.385
-0.375
-0.370
-0.370
-0.380
-0.395
-0.385
-0.390
-0.375
-0.380
-0.385
-0.395
-0.400
-0.385
-0.380
-0.380
-0.390
-0.405
-0.400
-0.400
-0.375
-0.395
-0.390
-0.400
-0.390
-0.395
-0.385
-0.390
-0.400
-0.405
-0.395
-0.385
-0.370
-0.360
-0.365
-0.360
-0.355
-0.325
-0.305
-0.300
-0.300
-0.285
-0.285
-0.265
-0.250
-0.255
-0.255
-0.250
-0.255
-0.240
-0.235
-0.250
-0.245
-0.260
-0.245
-0.250
-0.235
-0.235
-0.235
-0.255
-0.270
-0.245
-0.235
-0.235
-0.250
-0.260
-0.250
-0.250
-0.240
-0.245
-0.250
-0.250
-0.255
-0.250
-0.245
-0.245
-0.260
-0.270
-0.270
-0.265
-0.255
-0.250
-0.265
-0.285
-0.275
-0.275
-0.260
-0.270
-0.275
-0.295
-0.285
-0.285
-0.280
-0.265
-0.275
-0.295
-0.280
-0.280
-0.265
-0.275
-0.275
-0.290
-0.295
-0.290
-0.290
-0.285
-0.290
-0.305
-0.300
-0.285
-0.275
-0.290
-0.290
-0.295
-0.295
-0.290
-0.270
-0.270
-0.290
-0.295
-0.290
-0.285
-0.285
-0.290
-0.285
-0.290
-0.290
-0.275
-0.280
-0.275
-0.285
-0.290
-0.285
-0.280
-0.265
-0.280
-0.280
-0.280
-0.285
-0.285
-0.285
-0.270
-0.285
-0.290
-0.280
-0.275
-0.255
-0.235
-0.230
-0.235
-0.240
-0.205
-0.205
-0.200
-0.200
-0.200
-0.190
-0.175
-0.160
-0.165
-0.165
-0.185
-0.180
-0.175
-0.180
-0.190
-0.200
-0.210
-0.200
-0.200
-0.200
-0.190
-0.175
-0.165
-0.175
-0.195
-0.205
-0.235
-0.255
-0.285
-0.295
-0.275
-0.270
-0.285
-0.285
-0.295
-0.290
-0.285
-0.270
-0.270
-0.295
-0.290
-0.295
-0.295
-0.290
-0.285
-0.295
-0.305
-0.305
-0.305
-0.305
-0.305
-0.315
-0.320
-0.325
-0.320
-0.305
-0.310
-0.330
-0.350
-0.385
-0.410
-0.435
-0.455
-0.500
-0.510
-0.455
-0.315
-0.160
0.020
0.245
0.510
0.765
0.910
0.895
0.660
0.275
-0.135
-0.385
-0.445
-0.395
-0.340
-0.325
-0.350
-0.340
-0.340
-0.315
-0.315
-0.320
-0.340
-0.330
-0.320
-0.320
-0.320
-0.335
-0.335
-0.340
-0.330
-0.330
-0.335
-0.335
-0.340
-0.340
-0.340
-0.345
-0.340
-0.345
-0.340
-0.335
-0.340
-0.330
-0.335
-0.345
-0.350
-0.350
-0.330
-0.325
-0.330
-0.345
-0.330
-0.335
-0.330
-0.325
-0.315
-0.325
-0.330
-0.335
-0.335
-0.320
-0.320
-0.330
-0.345
-0.345
-0.330
-0.325
-0.330
-0.335
-0.345
-0.340
-0.330
-0.320
-0.320
-0.330
-0.340
-0.335
-0.335
-0.320
-0.320
-0.330
-0.340
-0.345
-0.335
-0.330
-0.340
-0.350
-0.355
-0.355
-0.355
-0.350
-0.345
-0.350
-0.360
-0.360
-0.350
-0.345
-0.345
-0.355
-0.365
-0.345
-0.335
-0.335
-0.345
-0.335
-0.350
-0.345
-0.335
-0.330
-0.330
-0.335
-0.335
-0.320
-0.305
-0.295
-0.300
-0.290
-0.275
-0.285
-0.275
-0.255
-0.255
-0.260
-0.260
-0.260
-0.255
-0.250
-0.245
-0.235
-0.240
-0.250
-0.215
-0.215
-0.220
-0.225
-0.235
-0.245
-0.245
-0.235
-0.255
-0.255
-0.250
-0.255
-0.245
-0.230
-0.240
-0.250
-0.265
-0.265
-0.265
-0.245
-0.255
-0.270
-0.265
-0.265
-0.255
-0.250
-0.265
-0.260
-0.260
-0.265
-0.260
-0.260
-0.260
-0.265
-0.290
-0.280
-0.265
-0.255
-0.270
-0.270
-0.280
-0.285
-0.275
-0.260
-0.270
-0.275
-0.290
-0.290
-0.275
-0.270
-0.275
-0.280
-0.290
-0.295
-0.285
-0.270
-0.275
-0.275
-0.285
-0.285
-0.285
-0.265
-0.280
-0.290
-0.300
-0.295
-0.285
-0.270
-0.275
-0.280
-0.280
-0.285
-0.290
-0.270
-0.270
-0.275
-0.275
-0.270
-0.270
-0.260
-0.260
-0.265
-0.265
-0.280
-0.275
-0.240
-0.255
-0.245
-0.235
-0.230
-0.225
-0.210
-0.210
-0.210
-0.215
-0.215
-0.185
-0.175
-0.170
-0.165
-0.165
-0.180
-0.175
-0.170
-0.180
-0.190
-0.200
-0.205
-0.200
-0.180
-0.185
-0.180
-0.205
-0.210
-0.210
-0.190
-0.180
-0.160
-0.185
-0.205
-0.230
-0.230
-0.260
-0.270
-0.300
-0.315
-0.310
-0.300
-0.300
-0.310
-0.315
-0.325
-0.310
-0.300
-0.320
-0.315
-0.340
-0.315
-0.315
-0.305
-0.300
-0.320
-0.320
-0.340
-0.325
-0.325
-0.325
-0.335
-0.345
-0.360
-0.395
-0.420
-0.440
-0.480
-0.525
-0.560
-0.510
-0.410
-0.285
-0.130
0.070
0.335
0.615
0.775
0.815
0.725
0.450
0.075
-0.240
-0.405
-0.465
-0.460
-0.430
-0.395
-0.365
-0.345
-0.355
-0.375
-0.370
-0.380
-0.365
-0.370
-0.350
-0.365
-0.370
-0.375
-0.380
-0.375
-0.370
-0.375
-0.385
-0.390
-0.370
-0.345
-0.355
-0.370
-0.375
-0.375
-0.375
-0.355
-0.370
-0.375
-0.380
-0.370
-0.370
-0.365
-0.370
-0.370
-0.360
-0.365
-0.360
-0.365
-0.380
-0.375
-0.375
-0.380
-0.375
-0.370
-0.370
-0.365
-0.370
-0.375
-0.365
-0.355
-0.355
-0.360
-0.365
-0.385
-0.365
-0.360
-0.360
-0.360
-0.370
-0.375
-0.355
-0.355
-0.345
-0.355
-0.370
-0.380
-0.365
-0.370
-0.365
-0.365
-0.385
-0.390
-0.385
-0.380
-0.380
-0.385
-0.395
-0.380
-0.380
-0.375
-0.375
-0.390
-0.400
-0.410
-0.400
-0.395
-0.375
-0.400
-0.415
-0.415
-0.410
-0.400
-0.400
-0.400
-0.390
-0.385
-0.365
-0.355
-0.350
-0.350
-0.345
-0.340
-0.340
-0.320
-0.325
-0.325
-0.330
-0.315
-0.300
-0.285
-0.295
-0.295
-0.305
-0.315
-0.310
-0.310
-0.310
-0.310
-0.315
-0.315
-0.315
-0.300
-0.315
-0.305
-0.310
-0.325
-0.310
-0.300
-0.305
-0.310
-0.320
-0.330
-0.315
-0.300
-0.310
-0.325
-0.340
-0.335
-0.325
-0.325
-0.335
-0.335
-0.345
-0.335
-0.330
-0.325
-0.330
-0.345
-0.350
-0.365
-0.340
-0.340
-0.335
-0.355
-0.340
-0.370
-0.365
-0.355
-0.360
-0.370
-0.370
-0.375
-0.355
-0.350
-0.360
-0.365
-0.375
-0.380
-0.370
-0.360
-0.360
-0.360
-0.370
-0.370
-0.355
-0.360
-0.370
-0.375
-0.395
-0.395
-0.370
-0.355
-0.355
-0.360
-0.380
-0.375
-0.370
-0.350
-0.365
-0.370
-0.375
-0.375
-0.370
-0.350
-0.345
-0.345
-0.350
-0.355
-0.340
-0.335
-0.320
-0.310
-0.310
-0.325
-0.305
-0.300
-0.300
-0.290
-0.290
-0.300
-0.290
-0.270
-0.270
-0.265
-0.280
-0.280
-0.270
-0.270
-0.280
-0.265
-0.275
-0.295
-0.305
-0.290
-0.270
-0.260
-0.270
-0.300
-0.320
-0.320
-0.340
-0.365
-0.390
-0.400
-0.395
-0.380
-0.405
-0.400
-0.410
-0.410
-0.395
-0.385
-0.380
-0.390
-0.400
-0.405
-0.395
-0.390
-0.385
-0.400
-0.415
-0.415
-0.400
-0.400
-0.395
-0.395
-0.405
-0.405
-0.400
-0.400
-0.405
-0.435
-0.455
-0.490
-0.505
-0.515
-0.560
-0.585
-0.565
-0.475
-0.345
-0.190
0.015
0.265
0.520
0.715
0.805
0.740
0.460
0.080
-0.270
-0.465
-0.540
-0.530
-0.505
-0.480
-0.470
-0.470
-0.460
-0.445
-0.430
-0.440
-0.455
-0.450
-0.445
-0.425
-0.435
-0.445
-0.435
-0.450
-0.425
-0.420
-0.430
-0.440
-0.445
-0.455
-0.440
-0.430
-0.420
-0.435
-0.455
-0.460
-0.430
-0.440
-0.435
-0.440
-0.450
-0.445
-0.440
-0.445
-0.445
-0.445
-0.445
-0.465
-0.440
-0.445
-0.435
-0.435
-0.440
-0.445
-0.440
-0.435
-0.445
-0.445
-0.455
-0.450
-0.455
-0.440
-0.450
-0.445
-0.435
-0.455
-0.445
-0.430
-0.425
-0.435
-0.450
-0.455
-0.450
-0.430
-0.435
-0.440
-0.455
-0.470
-0.455
-0.450
-0.450
-0.455
-0.465
-0.480
-0.475
-0.465
-0.480
-0.500
-0.505
-0.505
-0.505
-0.490
-0.490
-0.490
-0.500
-0.505
-0.495
-0.485
-0.470
-0.465
-0.465
-0.465
-0.450
-0.440
-0.420
-0.425
-0.425
-0.410
-0.405
-0.385
-0.375
-0.380
-0.365
-0.365
-0.350
-0.325
-0.340
-0.335
-0.350
-0.345
-0.340
-0.325
-0.325
-0.330
-0.325
-0.330
-0.325
-0.305
-0.320
-0.320
-0.335
-0.340
-0.335
-0.330
-0.335
-0.340
-0.340
-0.345
-0.340
-0.320
-0.335
-0.335
-0.340
-0.340
-0.330
-0.325
-0.345
-0.335
-0.340
-0.345
-0.340
-0.330
-0.335
-0.340
-0.350
-0.365
-0.350
-0.335
-0.350
-0.350
-0.355
-0.355
-0.355
-0.340
-0.345
-0.350
-0.360
-0.345
-0.355
-0.340
-0.350
-0.345
-0.360
-0.360
-0.345
-0.340
-0.345
-0.345
-0.355
-0.360
-0.355
-0.320
-0.340
-0.340
-0.345
-0.350
-0.340
-0.335
-0.325
-0.345
-0.340
-0.350
-0.340
-0.315
-0.330
-0.340
-0.340
-0.340
-0.325
-0.320
-0.320
-0.315
-0.305
-0.285
-0.270
-0.260
-0.260
-0.265
-0.275
-0.265
-0.240
-0.230
-0.220
-0.230
-0.230
-0.235
-0.215
-0.220
-0.230
-0.230
-0.245
-0.255
-0.250
-0.235
-0.235
-0.235
-0.245
-0.260
-0.255
-0.225
-0.220
-0.205
-0.230
-0.265
-0.280
-0.290
-0.290
-0.305
-0.330
-0.335
-0.335
-0.330
-0.320
-0.335
-0.330
-0.345
-0.340
-0.340
-0.335
-0.340
-0.355
-0.350
-0.340
-0.330
-0.350
-0.345
-0.350
-0.360
-0.355
-0.340
-0.335
-0.355
-0.375
-0.410
-0.445
-0.450
-0.475
-0.520
-0.545
-0.550
-0.465
-0.350
-0.230
-0.135
-0.010
0.145
0.360
0.565
0.740
0.865
0.950
1.020
1.005
0.845
0.500
0.065
-0.285
-0.470
-0.480
-0.425
-0.370
-0.370
-0.385
-0.395
-0.375
-0.365
-0.365
-0.380
-0.395
-0.395
-0.400
-0.370
-0.380
-0.390
-0.395
-0.410
-0.400
-0.385
-0.390
-0.400
-0.405
-0.410
-0.400
-0.395
-0.390
-0.395
-0.395
-0.405
-0.395
-0.385
-0.390
-0.385
-0.400
-0.410
-0.400
-0.370
-0.375
-0.380
-0.385
-0.385
-0.380
-0.380
-0.375
-0.395
-0.395
-0.395
-0.380
-0.375
-0.365
-0.380
-0.395
-0.395
-0.390
-0.380
-0.380
-0.385
-0.395
-0.400
-0.390
-0.385
-0.380
-0.400
-0.395
-0.395
-0.380
-0.380
-0.380
-0.385
-0.405
-0.395
-0.400
-0.385
-0.390
-0.400
-0.410
-0.410
-0.405
-0.410
-0.400
-0.405
-0.420
-0.415
-0.400
-0.390
-0.400
-0.400
-0.405
-0.390
-0.390
-0.375
-0.355
-0.360
-0.365
-0.365
-0.335
-0.320
-0.320
-0.305
-0.315
-0.305
-0.300
-0.290
-0.285
-0.290
-0.300
-0.300
-0.295
-0.285
-0.275
-0.290
-0.285
-0.285
-0.280
-0.270
-0.270
-0.285
-0.295
-0.295
-0.280
-0.285
-0.295
-0.290
-0.295
-0.305
-0.310
-0.290
-0.280
-0.305
-0.305
-0.305
-0.295
-0.305
-0.295
-0.300
-0.305
-0.315
-0.305
-0.295
-0.305
-0.300
-0.315
-0.325
-0.300
-0.315
-0.305
-0.310
-0.325
-0.335
-0.315
-0.315
-0.325
-0.325
-0.335
-0.335
-0.320
-0.325
-0.310
-0.325
-0.345
-0.345
-0.340
-0.320
-0.325
-0.335
-0.350
-0.340
-0.340
-0.330
-0.325
-0.330
-0.345
-0.345
-0.335
-0.320
-0.325
-0.330
-0.345
-0.350
-0.335
-0.320
-0.325
-0.325
-0.335
-0.345
-0.320
-0.320
-0.320
-0.350
-0.345
-0.335
-0.320
-0.315
-0.295
-0.300
-0.285
-0.280
-0.260
-0.250
-0.245
-0.255
-0.250
-0.255
-0.235
-0.225
-0.215
-0.220
-0.225
-0.245
-0.225
-0.220
-0.225
-0.235
-0.255
-0.260
-0.240
-0.235
-0.235
-0.250
-0.260
-0.270
-0.245
-0.220
-0.205
-0.225
-0.250
-0.280
-0.280
-0.295
-0.305
-0.320
-0.345
-0.350
-0.350
-0.340
-0.340
-0.350
-0.350
-0.355
-0.355
-0.355
-0.360
-0.355
-0.365
-0.370
-0.365
-0.365
-0.360
-0.365
-0.360
-0.365
-0.360
-0.360
-0.370
-0.395
-0.445
-0.485
-0.495
-0.520
-0.550
-0.555
-0.475
-0.355
-0.185
-0.015
0.250
0.535
0.765
0.875
0.890
0.710
0.330
-0.080
-0.375
-0.510
-0.510
-0.470
-0.425
-0.395
-0.385
-0.390
-0.395
-0.395
-0.385
-0.380
-0.385
-0.400
-0.395
-0.380
-0.390
-0.395
-0.415
-0.410
-0.405
-0.395
-0.395
-0.410
-0.415
-0.400
-0.405
-0.395
-0.395
-0.400
-0.410
-0.425
-0.390
-0.390
-0.390
-0.390
-0.395
-0.400
-0.390
-0.375
-0.385
-0.395
-0.385
-0.400
-0.375
-0.380
-0.385
-0.380
-0.395
-0.405
-0.395
-0.385
-0.390
-0.380
-0.390
-0.400
-0.395
-0.385
-0.390
-0.390
-0.400
-0.400
-0.385
-0.380
-0.390
-0.390
-0.395
-0.385
-0.390
-0.380
-0.375
-0.385
-0.400
-0.395
-0.390
-0.380
-0.385
-0.390
-0.395
-0.405
-0.395
-0.390
-0.395
-0.395
-0.415
-0.410
-0.400
-0.415
-0.400
-0.405
-0.410
-0.420
-0.400
-0.390
-0.390
-0.395
-0.395
-0.405
-0.375
-0.370
-0.360
-0.360
-0.365
-0.355
-0.340
-0.325
-0.320
-0.315
-0.320
-0.320
-0.305
-0.295
-0.295
-0.300
-0.310
-0.305
-0.295
-0.290
-0.290
-0.295
-0.300
-0.290
-0.290
-0.290
-0.285
-0.295
-0.305
-0.305
-0.285
-0.285
-0.285
-0.285
-0.295
-0.305
-0.300
-0.295
-0.295
-0.310
-0.320
-0.315
-0.310
-0.305
-0.305
-0.320
-0.320
-0.320
-0.315
-0.300
-0.300
-0.310
-0.315
-0.315
-0.315
-0.315
-0.300
-0.315
-0.310
-0.325
-0.325
-0.315
-0.315
-0.320
-0.325
-0.335
-0.330
-0.325
-0.325
-0.340
-0.335
-0.345
-0.330
-0.320
-0.330
-0.335
-0.340
-0.345
-0.325
-0.335
-0.325
-0.330
-0.335
-0.340
-0.335
-0.325
-0.330
-0.330
-0.340
-0.335
-0.325
-0.315
-0.340
-0.345
-0.340
-0.340
-0.330
-0.320
-0.315
-0.315
-0.335
-0.330
-0.320
-0.305
-0.315
-0.330
-0.330
-0.340
-0.325
-0.320
-0.315
-0.310
-0.320
-0.325
-0.295
-0.280
-0.280
-0.270
-0.275
-0.280
-0.265
-0.260
-0.245
-0.240
-0.240
-0.240
-0.200
-0.190
-0.200
-0.210
-0.225
-0.240
-0.235
-0.230
-0.220
-0.220
-0.240
-0.240
-0.245
-0.240
-0.230
-0.210
-0.205
-0.205
-0.220
-0.225
-0.255
-0.270
-0.285
-0.295
-0.300
-0.305
-0.310
-0.320
-0.330
-0.345
-0.350
-0.345
-0.340
-0.335
-0.350
-0.350
-0.350
-0.340
-0.350
-0.365
-0.370
-0.375
-0.360
-0.360
-0.355
-0.360
-0.370
-0.370
-0.360
-0.350
-0.350
-0.370
-0.385
-0.420
-0.445
-0.465
-0.475
-0.500
-0.555
-0.590
-0.535
-0.445
-0.335
-0.215
-0.040
0.210
0.475
0.675
0.780
0.775
0.625
0.330
-0.010
-0.275
-0.440
-0.500
-0.485
-0.435
-0.395
-0.380
-0.385
-0.375
-0.390
-0.405
-0.385
-0.380
-0.385
-0.395
-0.395
-0.385
-0.395
-0.390
-0.390
-0.400
-0.405
-0.415
-0.400
-0.395
-0.395
-0.405
-0.410
-0.415
-0.400
-0.395
-0.390
-0.395
-0.410
-0.420
-0.400
-0.395
-0.395
-0.395
-0.400
-0.405
-0.405
-0.390
-0.395
-0.395
-0.395
-0.405
-0.400
-0.400
-0.400
-0.400
-0.415
-0.410
-0.410
-0.395
-0.390
-0.405
-0.390
-0.400
-0.385
-0.395
-0.385
-0.390
-0.395
-0.395
-0.380
-0.385
-0.385
-0.390
-0.385
-0.385
-0.360
-0.360
-0.360
-0.350
-0.355
-0.350
-0.340
-0.325
-0.320
-0.320
-0.320
-0.320
-0.290
-0.280
-0.265
-0.270
-0.275
-0.285
-0.290
-0.280
-0.270
-0.290
-0.280
-0.285
-0.250
-0.240
-0.265
-0.300
-0.315
-0.335
-0.330
-0.345
-0.350
-0.365
-0.395
-0.415
-0.405
-0.400
-0.380
-0.390
-0.390
-0.395
-0.385
-0.370
-0.355
-0.370
-0.375
-0.370
-0.355
-0.350
-0.340
-0.345
-0.345
-0.350
-0.330
-0.340
-0.345
-0.335
-0.345
-0.345
-0.350
-0.340
-0.350
-0.360
-0.370
-0.375
-0.355
-0.350
-0.350
-0.350
-0.350
-0.360
-0.345
-0.345
-0.350
-0.355
-0.365
-0.370
-0.365
-0.350
-0.360
-0.360
-0.375
-0.370
-0.365
-0.355
-0.340
-0.355
-0.375
-0.380
-0.370
-0.360
-0.340
-0.355
-0.355
-0.370
-0.365
-0.360
-0.385
-0.400
-0.425
-0.420
-0.415
-0.410
-0.400
-0.310
-0.165
0.025
0.225
0.405
0.635
0.870
1.015
0.995
0.735
0.290
-0.150
-0.420
-0.520
-0.490
-0.420
-0.375
-0.365
-0.370
-0.370
-0.380
-0.360
-0.350
-0.345
-0.360
-0.360
-0.365
-0.360
-0.360
-0.350
-0.360
-0.365
-0.370
-0.360
-0.355
-0.360
-0.350
-0.360
-0.375
-0.365
-0.355
-0.360
-0.370
-0.365
-0.380
-0.380
-0.360
-0.355
-0.365
-0.360
-0.380
-0.360
-0.350
-0.350
-0.350
-0.355
-0.355
-0.355
-0.340
-0.325
-0.335
-0.350
-0.350
-0.345
-0.340
-0.335
-0.345
-0.350
-0.350
-0.350
-0.345
-0.355
-0.355
-0.360
-0.355
-0.355
-0.340
-0.340
-0.340
-0.345
-0.355
-0.345
-0.335
-0.335
-0.340
-0.345
-0.350
-0.330
-0.330
-0.345
-0.325
-0.350
-0.370
-0.355
-0.360
-0.370
-0.385
-0.400
-0.400
-0.390
-0.385
-0.390
-0.400
-0.410
-0.420
-0.415
-0.405
-0.415
-0.430
-0.430
-0.430
-0.420
-0.405
-0.400
-0.410
-0.410
-0.410
-0.390
-0.370
-0.365
-0.385
-0.380
-0.375
-0.365
-0.365
-0.365
-0.355
-0.355
-0.350
-0.345
-0.345
-0.335
-0.340
-0.340
-0.345
-0.335
-0.335
-0.335
-0.330
-0.340
-0.340
-0.340
-0.330
-0.320
-0.320
-0.335
-0.350
-0.340
-0.330
-0.335
-0.325
-0.325
-0.345
-0.340
-0.320
-0.325
-0.325
-0.335
-0.345
-0.335
-0.325
-0.325
-0.325
-0.335
-0.340
-0.340
-0.330
-0.330
-0.330
-0.340
-0.345
-0.345
-0.320
-0.335
-0.335
-0.340
-0.340
-0.340
-0.330
-0.330
-0.345
-0.355
-0.350
-0.345
-0.340
-0.325
-0.330
-0.330
-0.340
-0.335
-0.335
-0.335
-0.330
-0.340
-0.360
-0.340
-0.340
-0.335
-0.340
-0.345
-0.350
-0.350
-0.335
-0.330
-0.325
-0.340
-0.360
-0.345
-0.330
-0.325
-0.325
-0.350
-0.350
-0.335
-0.325
-0.340
-0.325
-0.335
-0.335
-0.340
-0.335
-0.325
-0.325
-0.335
-0.340
-0.335
-0.325
-0.325
-0.335
-0.335
-0.350
-0.340
-0.330
-0.330
-0.320
-0.335
-0.345
-0.325
-0.315
-0.325
-0.330
-0.335
-0.335
-0.330
-0.315
-0.310
-0.315
-0.330
-0.335
-0.335
-0.320
-0.330
-0.340
-0.330
-0.330
-0.310
-0.315
-0.320
-0.320
-0.330
-0.325
-0.310
-0.305
-0.285
-0.275
-0.280
-0.290
-0.265
-0.250
-0.250
-0.255
-0.255
-0.255
-0.255
-0.240
-0.235
-0.225
-0.240
-0.250
-0.225
-0.215
-0.215
-0.230
-0.235
-0.235
-0.235
-0.235
-0.230
-0.235
-0.235
-0.240
-0.235
-0.235
-0.215
-0.215
-0.210
-0.235
-0.245
-0.265
-0.265
-0.290
-0.315
-0.325
-0.315
-0.320
-0.320
-0.325
-0.335
-0.325
-0.325
-0.325
-0.315
-0.315
-0.330
-0.330
-0.330
-0.330
-0.325
-0.335
-0.335
-0.330
-0.315
-0.310
-0.310
-0.310
-0.315
-0.330
-0.335
-0.330
-0.350
-0.385
-0.430
-0.445
-0.455
-0.465
-0.490
-0.515
-0.490
-0.430
-0.275
-0.155
0.010
0.240
0.500
0.725
0.880
0.910
0.730
0.390
-0.005
-0.305
-0.430
-0.455
-0.435
-0.395
-0.365
-0.360
-0.355
-0.350
-0.350
-0.355
-0.365
-0.380
-0.370
-0.365
-0.365
-0.370
-0.385
-0.380
-0.375
-0.370
-0.365
-0.370
-0.370
-0.375
-0.370
-0.365
-0.350
-0.360
-0.360
-0.375
-0.365
-0.355
-0.355
-0.375
-0.375
-0.375
-0.360
-0.350
-0.355
-0.355
-0.365
-0.375
-0.365
-0.370
-0.370
-0.370
-0.380
-0.375
-0.365
-0.360
-0.350
-0.360
-0.365
-0.370
-0.350
-0.355
-0.350
-0.360
-0.365
-0.370
-0.360
-0.360
-0.350
-0.355
-0.365
-0.380
-0.380
-0.375
-0.370
-0.370
-0.375
-0.370
-0.365
-0.355
-0.350
-0.360
-0.370
-0.375
-0.375
-0.370
-0.370
-0.395
-0.400
-0.410
-0.400
-0.410
-0.405
-0.410
-0.420
-0.430
-0.420
-0.410
-0.400
-0.410
-0.405
-0.400
-0.400
-0.380
-0.375
-0.375
-0.360
-0.355
-0.340
-0.315
-0.305
-0.300
-0.280
-0.285
-0.270
-0.275
-0.265
-0.255
-0.260
-0.260
-0.250
-0.245
-0.235
-0.240
-0.250
-0.245
-0.245
-0.255
-0.235
-0.250
-0.250
-0.255
-0.245
-0.240
-0.235
-0.235
-0.245
-0.255
-0.245
-0.255
-0.235
-0.245
-0.260
-0.265
-0.255
-0.255
-0.255
-0.250
-0.270
-0.265
-0.265
-0.255
-0.255
-0.265
-0.265
-0.260
-0.260
-0.255
-0.265
-0.275
-0.290
-0.285
-0.280
-0.275
-0.270
-0.285
-0.285
-0.290
-0.290
-0.285
-0.280
-0.280
-0.295
-0.305
-0.290
-0.285
-0.280
-0.300
-0.305
-0.300
-0.300
-0.285
-0.285
-0.295
-0.300
-0.310
-0.305
-0.310
-0.305
-0.315
-0.315
-0.320
-0.310
-0.300
-0.310
-0.315
-0.310
-0.330
-0.310
-0.310
-0.305
-0.315
-0.315
-0.320
-0.310
-0.305
-0.290
-0.295
-0.295
-0.300
-0.310
-0.300
-0.295
-0.300
-0.305
-0.320
-0.310
-0.305
-0.300
-0.305
-0.315
-0.305
-0.285
-0.275
-0.260
-0.260
-0.255
-0.255
-0.245
-0.245
-0.240
-0.230
-0.220
-0.235
-0.220
-0.205
-0.180
-0.185
-0.205
-0.205
-0.205
-0.210
-0.210
-0.215
-0.230
-0.230
-0.215
-0.200
-0.210
-0.230
-0.245
-0.245
-0.220
-0.200
-0.190
-0.210
-0.235
-0.260
-0.270
-0.265
-0.290
-0.305
-0.315
-0.330
-0.325
-0.335
-0.315
-0.315
-0.335
-0.340
-0.335
-0.325
-0.320
-0.320
-0.340
-0.350
-0.330
-0.335
-0.320
-0.345
-0.350
-0.355
-0.340
-0.345
-0.335
-0.345
-0.365
-0.410
-0.435
-0.460
-0.480
-0.510
-0.560
-0.580
-0.505
-0.385
-0.275
-0.175
-0.075
0.065
0.275
0.495
0.705
0.860
0.940
0.940
0.795
0.505
0.140
-0.210
-0.415
-0.490
-0.480
-0.440
-0.420
-0.380
-0.390
-0.405
-0.385
-0.375
-0.380
-0.385
-0.395
-0.410
-0.395
-0.400
-0.395
-0.390
-0.390
-0.395
-0.390
-0.380
-0.395
-0.395
-0.390
-0.405
-0.390
-0.390
-0.390
-0.390
-0.400
-0.400
-0.395
-0.395
-0.385
-0.390
-0.405
-0.405
-0.405
-0.390
-0.390
-0.390
-0.400
-0.390
-0.400
-0.385
-0.375
-0.380
-0.390
-0.395
-0.395
-0.390
-0.380
-0.380
-0.395
-0.390
-0.385
-0.380
-0.380
-0.380
-0.400
-0.405
-0.400
-0.390
-0.395
-0.390
-0.395
-0.395
-0.385
-0.385
-0.385
-0.390
-0.400
-0.400
-0.395
-0.375
-0.385
-0.390
-0.405
-0.405
-0.395
-0.395
-0.395
-0.390
-0.405
-0.420
-0.405
-0.415
-0.410
-0.400
-0.405
-0.415
-0.420
-0.400
-0.390
-0.390
-0.390
-0.370
-0.365
-0.340
-0.335
-0.320
-0.320
-0.325
-0.305
-0.295
-0.285
-0.295
-0.305
-0.310
-0.305
-0.290
-0.295
-0.300
-0.300
-0.315
-0.295
-0.285
-0.290
-0.295
-0.300
-0.305
-0.305
-0.285
-0.275
-0.280
-0.300
-0.310
-0.295
-0.290
-0.295
-0.295
-0.300
-0.315
-0.305
-0.310
-0.300
-0.310
-0.320
-0.330
-0.320
-0.310
-0.315
-0.320
-0.325
-0.330
-0.330
-0.330
-0.325
-0.335
-0.335
-0.340
-0.345
-0.330
-0.325
-0.335
-0.350
-0.360
-0.355
-0.360
-0.370
-0.365
-0.365
-0.370
-0.365
-0.365
-0.355
-0.350
-0.355
-0.360
-0.350
-0.345
-0.335
-0.345
-0.350
-0.370
-0.365
-0.345
-0.340
-0.350
-0.355
-0.365
-0.365
-0.365
-0.365
-0.350
-0.360
-0.360
-0.350
-0.345
-0.350
-0.360
-0.360
-0.360
-0.350
-0.355
-0.350
-0.355
-0.360
-0.360
-0.345
-0.330
-0.330
-0.340
-0.350
-0.365
-0.350
-0.335
-0.325
-0.325
-0.325
-0.315
-0.290
-0.280
-0.270
-0.280
-0.275
-0.275
-0.260
-0.255
-0.230
-0.235
-0.240
-0.240
-0.245
-0.235
-0.240
-0.250
-0.250
-0.280
-0.265
-0.265
-0.265
-0.250
-0.275
-0.280
-0.285
-0.275
-0.255
-0.235
-0.235
-0.265
-0.280
-0.295
-0.300
-0.320
-0.345
-0.360
-0.360
-0.370
-0.355
-0.365
-0.375
-0.385
-0.370
-0.360
-0.370
-0.380
-0.390
-0.395
-0.390
-0.380
-0.375
-0.380
-0.390
-0.400
-0.395
-0.390
-0.385
-0.385
-0.410
-0.440
-0.475
-0.500
-0.510
-0.540
-0.605
-0.645
-0.635
-0.565
-0.490
-0.390
-0.310
-0.195
-0.010
0.245
0.500
0.680
0.780
0.780
0.650
0.350
-0.020
-0.340
-0.510
-0.535
-0.495
-0.450
-0.420
-0.445
-0.440
-0.435
-0.430
-0.420
-0.415
-0.425
-0.445
-0.445
-0.450
-0.440
-0.440
-0.445
-0.455
-0.460
-0.455
-0.445
-0.450
-0.445
-0.450
-0.445
-0.445
-0.445
-0.445
-0.435
-0.445
-0.450
-0.450
-0.420
-0.420
-0.425
-0.450
-0.445
-0.450
-0.440
-0.430
-0.440
-0.450
-0.455
-0.450
-0.440
-0.440
-0.455
-0.465
-0.470
-0.455
-0.450
-0.445
-0.450
-0.460
-0.455
-0.450
-0.445
-0.435
-0.450
-0.445
-0.450
-0.430
-0.435
-0.425
-0.435
-0.445
-0.455
-0.435
-0.440
-0.440
-0.445
-0.445
-0.465
-0.470
-0.460
-0.450
-0.455
-0.470
-0.490
-0.500
-0.480
-0.475
-0.480
-0.490
-0.490
-0.495
-0.480
-0.485
-0.485
-0.490
-0.490
-0.470
-0.460
-0.455
-0.440
-0.455
-0.435
-0.420
-0.400
-0.400
-0.385
-0.395
-0.395
-0.390
-0.370
-0.375
-0.365
-0.365
-0.370
-0.355
-0.350
-0.350
-0.355
-0.360
-0.375
-0.375
-0.375
-0.355
-0.360
-0.375
-0.370
-0.360
-0.360
-0.365
-0.365
-0.370
-0.380
-0.385
-0.395
-0.390
-0.385
-0.385
-0.395
-0.385
-0.375
-0.370
-0.380
-0.390
-0.395
-0.400
-0.375
-0.375
-0.370
-0.385
-0.400
-0.410
-0.400
-0.390
-0.415
-0.420
-0.425
-0.425
-0.415
-0.410
-0.415
-0.425
-0.430
-0.430
-0.420
-0.410
-0.395
-0.405
-0.415
-0.410
-0.410
-0.410
-0.410
-0.420
-0.420
-0.420
-0.405
-0.400
-0.410
-0.430
-0.425
-0.430
-0.430
-0.410
-0.420
-0.420
-0.425
-0.420
-0.410
-0.410
-0.405
-0.405
-0.410
-0.410
-0.410
-0.405
-0.420
-0.425
-0.425
-0.420
-0.410
-0.400
-0.400
-0.395
-0.375
-0.360
-0.350
-0.340
-0.340
-0.340
-0.345
-0.330
-0.320
-0.315
-0.320
-0.315
-0.320
-0.345
-0.330
-0.325
-0.315
-0.330
-0.345
-0.330
-0.340
-0.370
-0.370
-0.365
-0.365
-0.335
-0.310
-0.295
-0.320
-0.345
-0.385
-0.390
-0.395
-0.405
-0.425
-0.425
-0.435
-0.445
-0.435
-0.430
-0.435
-0.445
-0.450
-0.465
-0.450
-0.435
-0.445
-0.460
-0.460
-0.470
-0.460
-0.465
-0.465
-0.465
-0.470
-0.465
-0.460
-0.455
-0.450
-0.470
-0.500
-0.535
-0.545
-0.560
-0.600
-0.640
-0.650
-0.580
-0.455
-0.315
-0.140
0.100
0.355
0.610
0.765
0.800
0.670
0.370
-0.005
-0.310
-0.480
-0.560
-0.590
-0.580
-0.545
-0.510
-0.485
-0.495
-0.495
-0.495
-0.500
-0.490
-0.480
-0.485
-0.490
-0.505
-0.515
-0.510
-0.500
-0.500
-0.495
-0.505
-0.515
-0.505
-0.490
-0.495
-0.490
-0.505
-0.515
-0.510
-0.485
-0.490
-0.490
-0.490
-0.500
-0.505
-0.490
-0.480
-0.500
-0.500
-0.510
-0.500
-0.490
-0.490
-0.490
-0.500
-0.500
-0.505
-0.495
-0.495
-0.490
-0.485
-0.495
-0.490
-0.480
-0.475
-0.475
-0.480
-0.490
-0.490
-0.485
-0.480
-0.485
-0.485
-0.495
-0.500
-0.475
-0.475
-0.485
-0.495
-0.495
-0.485
-0.485
-0.485
-0.490
-0.495
-0.510
-0.490
-0.480
-0.475
-0.475
-0.485
-0.500
-0.510
-0.505
-0.510
-0.510
-0.515
-0.530
-0.525
-0.520
-0.520
-0.525
-0.535
-0.550
-0.535
-0.510
-0.495
-0.490
-0.495
-0.485
-0.455
-0.435
-0.430
-0.420
-0.410
-0.410
-0.385
-0.370
-0.355
-0.355
-0.355
-0.365
-0.355
-0.345
-0.335
-0.340
-0.350
-0.355
-0.350
-0.340
-0.340
-0.340
-0.355
-0.355
-0.355
-0.350
-0.340
-0.345
-0.355
-0.350
-0.345
-0.350
-0.350
-0.345
-0.340
-0.350
-0.335
-0.340
-0.340
-0.345
-0.340
-0.350
-0.350
-0.335
-0.340
-0.350
-0.360
-0.370
-0.360
-0.350
-0.350
-0.350
-0.365
-0.370
-0.365
-0.360
-0.355
-0.365
-0.370
-0.380
-0.375
-0.350
-0.360
-0.365
-0.370
-0.375
-0.365
-0.365
-0.365
-0.365
-0.375
-0.375
-0.375
-0.370
-0.375
-0.385
-0.390
-0.385
-0.375
-0.370
-0.360
-0.370
-0.365
-0.375
-0.360
-0.355
-0.350
-0.370
-0.365
-0.380
-0.375
-0.365
-0.360
-0.355
-0.360
-0.365
-0.355
-0.335
-0.330
-0.340
-0.350
-0.355
-0.355
-0.345
-0.340
-0.345
-0.345
-0.355
-0.345
-0.325
-0.315
-0.300
-0.295
-0.300
-0.290
-0.275
-0.265
-0.275
-0.260
-0.260
-0.250
-0.235
-0.235
-0.240
-0.240
-0.260
-0.255
-0.250
-0.240
-0.270
-0.270
-0.270
-0.270
-0.275
-0.265
-0.265
-0.240
-0.250
-0.260
-0.270
-0.275
-0.295
-0.320
-0.340
-0.340
-0.345
-0.340
-0.350
-0.355
-0.360
-0.360
-0.360
-0.350
-0.365
-0.365
-0.370
-0.370
-0.350
-0.350
-0.355
-0.360
-0.365
-0.380
-0.360
-0.360
-0.365
-0.380
-0.385
-0.375
-0.365
-0.370
-0.370
-0.375
-0.390
-0.425
-0.455
-0.470
-0.485
-0.540
-0.565
-0.535
-0.445
-0.290
-0.125
0.070
0.335
0.625
0.845
0.955
0.890
0.645
0.240
-0.165
-0.415
-0.475
-0.460
-0.420
-0.395
-0.385
-0.370
-0.380
-0.385
-0.400
-0.410
-0.405
-0.395
-0.390
-0.395
-0.395
-0.405
-0.400
-0.405
-0.400
-0.405
-0.405
-0.405
-0.400
-0.395
-0.385
-0.390
-0.395
-0.395
-0.395
-0.385
-0.375
-0.375
-0.385
-0.400
-0.395
-0.390
-0.385
-0.390
-0.385
-0.400
-0.395
-0.400
-0.380
-0.380
-0.395
-0.405
-0.390
-0.390
-0.375
-0.380
-0.380
-0.395
-0.395
-0.380
-0.380
-0.380
-0.390
-0.400
-0.395
-0.380
-0.375
-0.375
-0.390
-0.400
-0.390
-0.375
-0.380
-0.385
-0.385
-0.395
-0.395
-0.395
-0.375
-0.380
-0.390
-0.400
-0.395
-0.395
-0.390
-0.385
-0.390
-0.395
-0.395
-0.385
-0.380
-0.385
-0.390
-0.385
-0.390
-0.380
-0.380
-0.390
-0.390
-0.400
-0.390
-0.385
-0.385
-0.390
-0.395
-0.390
-0.385
-0.360
-0.355
-0.345
-0.350
-0.340
-0.330
-0.295
-0.295
-0.290
-0.305
-0.300
-0.285
-0.280
-0.260
-0.270
-0.280
-0.290
-0.285
-0.275
-0.265
-0.270
-0.270
-0.285
-0.280
-0.280
-0.260
-0.280
-0.285
-0.290
-0.285
-0.270
-0.270
-0.280
-0.280
-0.295
-0.280
-0.290
-0.285
-0.285
-0.295
-0.305
-0.295
-0.295
-0.285
-0.290
-0.300
-0.315
-0.305
-0.295
-0.290
-0.305
-0.305
-0.315
-0.315
-0.305
-0.300
-0.305
-0.320
-0.330
-0.325
-0.305
-0.305
-0.310
-0.320
-0.325
-0.320
-0.315
-0.310
-0.320
-0.315
-0.330
-0.325
-0.325
-0.320
-0.320
-0.325
-0.335
-0.330
-0.320
-0.310
-0.315
-0.325
-0.330
-0.310
-0.305
-0.305
-0.290
-0.300
-0.310
-0.310
-0.295
-0.295
-0.295
-0.295
-0.300
-0.300
-0.300
-0.290
-0.300
-0.310
-0.325
-0.310
-0.300
-0.290
-0.300
-0.290
-0.300
-0.295
-0.275
-0.255
-0.245
-0.235
-0.240
-0.235
-0.225
-0.220
-0.205
-0.200
-0.200
-0.185
-0.175
-0.180
-0.185
-0.205
-0.215
-0.220
-0.210
-0.210
-0.205
-0.235
-0.235
-0.215
-0.195
-0.170
-0.185
-0.230
-0.255
-0.260
-0.270
-0.275
-0.290
-0.305
-0.315
-0.305
-0.305
-0.300
-0.315
-0.315
-0.320
-0.325
-0.310
-0.320
-0.320
-0.325
-0.335
-0.325
-0.330
-0.315
-0.325
-0.325
-0.335
-0.335
-0.315
-0.315
-0.320
-0.325
-0.350
-0.370
-0.410
-0.425
-0.435
-0.440
-0.480
-0.525
-0.565
-0.550
-0.525
-0.480
-0.385
-0.255
-0.135
0.035
0.260
0.495
0.715
0.870
0.925
0.790
0.470
0.070
-0.270
-0.430
-0.455
-0.405
-0.345
-0.335
-0.355
-0.345
-0.340
-0.335
-0.330
-0.345
-0.355
-0.350
-0.345
-0.340
-0.340
-0.345
-0.370
-0.355
-0.350
-0.355
-0.355
-0.365
-0.365
-0.365
-0.350
-0.335
-0.335
-0.350
-0.355
-0.345
-0.335
-0.335
-0.330
-0.345
-0.350
-0.355
-0.330
-0.330
-0.335
-0.335
-0.350
-0.345
-0.345
-0.330
-0.350
-0.345
-0.350
-0.350
-0.340
-0.335
-0.340
-0.345
-0.360
-0.345
-0.335
-0.330
-0.330
-0.340
-0.345
-0.340
-0.335
-0.315
-0.315
-0.325
-0.340
-0.330
-0.330
-0.325
-0.315
-0.320
-0.340
-0.330
-0.325
-0.320
-0.320
-0.335
-0.345
-0.335
-0.325
-0.330
-0.340
-0.345
-0.350
-0.350
-0.335
-0.340
-0.345
-0.345
-0.355
-0.355
-0.345
-0.340
-0.345
-0.350
-0.360
-0.355
-0.350
-0.330
-0.330
-0.325
-0.340
-0.315
-0.300
-0.295
-0.285
-0.285
-0.285
-0.275
-0.255
-0.250
-0.245
-0.255
-0.275
-0.260
-0.240
-0.230
-0.240
-0.245
-0.250
-0.240
-0.235
-0.235
-0.245
-0.255
-0.260
-0.255
-0.250
-0.245
-0.250
-0.255
-0.265
-0.255
-0.240
-0.245
-0.250
-0.260
-0.265
-0.265
-0.265
-0.255
-0.255
-0.270
-0.270
-0.265
-0.255
-0.250
-0.255
-0.270
-0.275
-0.280
-0.280
-0.275
-0.280
-0.290
-0.300
-0.300
-0.300
-0.305
-0.300
-0.310
-0.325
-0.310
-0.300
-0.290
-0.295
-0.300
-0.325
-0.315
-0.290
-0.285
-0.295
-0.300
-0.310
-0.310
-0.305
-0.290
-0.300
-0.315
-0.345
-0.325
-0.320
-0.295
-0.310
-0.315
-0.320
-0.310
-0.310
-0.305
-0.295
-0.300
-0.295
-0.290
-0.295
-0.290
-0.300
-0.305
-0.305
-0.305
-0.280
-0.280
-0.275
-0.285
-0.310
-0.290
-0.285
-0.265
-0.255
-0.250
-0.255
-0.250
-0.245
-0.240
-0.215
-0.210
-0.225
-0.215
-0.205
-0.185
-0.175
-0.195
-0.190
-0.175
-0.180
-0.180
-0.190
-0.205
-0.215
-0.200
-0.190
-0.195
-0.215
-0.230
-0.240
-0.230
-0.205
-0.190
-0.205
-0.230
-0.260
-0.265
-0.260
-0.285
-0.305
-0.310
-0.325
-0.325
-0.330
-0.315
-0.305
-0.300
-0.320
-0.325
-0.330
-0.305
-0.310
-0.315
-0.325
-0.330
-0.320
-0.320
-0.330
-0.345
-0.345
-0.335
-0.330
-0.325
-0.330
-0.360
-0.385
-0.395
-0.420
-0.405
-0.415
-0.430
-0.510
-0.535
-0.525
-0.460
-0.365
-0.270
-0.140
0.050
0.300
0.555
0.755
0.860
0.820
0.625
0.305
-0.035
-0.275
-0.430
-0.470
-0.440
-0.400
-0.375
-0.375
-0.385
-0.395
-0.370
-0.370
-0.365
-0.365
-0.380
-0.390
-0.380
-0.370
-0.355
-0.360
-0.365
-0.370
-0.375
-0.365
-0.360
-0.355
-0.375
-0.385
-0.385
-0.375
-0.370
-0.375
-0.375
-0.380
-0.365
-0.370
-0.370
-0.355
-0.365
-0.380
-0.375
-0.370
-0.375
-0.375
-0.360
-0.385
-0.370
-0.370
-0.365
-0.355
-0.350
-0.365
-0.360
-0.360
-0.355
-0.360
-0.375
-0.385
-0.385
-0.370
-0.370
-0.365
-0.365
-0.370
-0.365
-0.360
-0.360
-0.365
-0.365
-0.380
-0.365
-0.365
-0.365
-0.365
-0.385
-0.375
-0.385
-0.375
-0.355
-0.355
-0.375
-0.385
-0.385
-0.380
-0.395
-0.405
-0.420
-0.430
-0.415
-0.405
-0.405
-0.410
-0.425
-0.415
-0.415
-0.405
-0.405
-0.410
-0.425
-0.430
-0.425
-0.420
-0.405
-0.390
-0.380
-0.375
-0.365
-0.350
-0.335
-0.340
-0.330
-0.335
-0.335
-0.310
-0.295
-0.290
-0.295
-0.290
-0.275
-0.270
-0.265
-0.270
-0.280
-0.295
-0.285
-0.270
-0.260
-0.270
-0.285
-0.290
-0.280
-0.270
-0.265
-0.270
-0.280
-0.290
-0.285
-0.275
-0.265
-0.270
-0.270
-0.280
-0.275
-0.275
-0.270
-0.275
-0.290
-0.300
-0.295
-0.285
-0.265
-0.275
-0.285
-0.295
-0.290
-0.295
-0.295
-0.285
-0.300
-0.305
-0.305
-0.295
-0.285
-0.295
-0.300
-0.310
-0.310
-0.300
-0.295
-0.300
-0.315
-0.330
-0.325
-0.315
-0.300
-0.305
-0.300
-0.320
-0.310
-0.310
-0.295
-0.305
-0.315
-0.320
-0.315
-0.315
-0.305
-0.305
-0.305
-0.320
-0.315
-0.315
-0.310
-0.300
-0.315
-0.315
-0.320
-0.310
-0.310
-0.300
-0.305
-0.315
-0.315
-0.300
-0.295
-0.300
-0.305
-0.315
-0.315
-0.300
-0.310
-0.305
-0.310
-0.325
-0.315
-0.315
-0.300
-0.285
-0.300
-0.290
-0.285
-0.260
-0.240
-0.255
-0.250
-0.260
-0.250
-0.225
-0.220
-0.215
-0.210
-0.215
-0.205
-0.190
-0.175
-0.185
-0.195
-0.200
-0.210
-0.210
-0.200
-0.200
-0.205
-0.225
-0.220
-0.220
-0.195
-0.185
-0.195
-0.215
-0.235
-0.245
-0.245
-0.260
-0.285
-0.300
-0.300
-0.295
-0.295
-0.295
-0.305
-0.310
-0.305
-0.305
-0.300
-0.300
-0.305
-0.320
-0.310
-0.305
-0.290
-0.305
-0.300
-0.320
-0.320
-0.305
-0.310
-0.315
-0.315
-0.320
-0.320
-0.315
-0.315
-0.305
-0.320
-0.350
-0.370
-0.390
-0.410
-0.430
-0.475
-0.505
-0.490
-0.405
-0.280
-0.145
0.000
0.215
0.470
0.705
0.875
0.925
0.810
0.545
0.180
-0.135
-0.330
-0.400
-0.425
-0.390
-0.350
-0.330
-0.325
-0.315
-0.325
-0.335
-0.330
-0.320
-0.320
-0.320
-0.330
-0.340
-0.340
-0.330
-0.320
-0.320
-0.325
-0.340
-0.340
-0.330
-0.335
-0.325
-0.330
-0.340
-0.335
-0.340
-0.315
-0.315
-0.325
-0.330
-0.325
-0.320
-0.310
-0.315
-0.320
-0.335
-0.335
-0.325
-0.325
-0.315
-0.330
-0.330
-0.330
-0.320
-0.315
-0.320
-0.320
-0.325
-0.325
-0.320
-0.305
-0.315
-0.320
-0.320
-0.320
-0.315
-0.305
-0.310
-0.325
-0.330
-0.325
-0.320
-0.310
-0.325
-0.320
-0.330
-0.335
-0.320
-0.325
-0.320
-0.325
-0.335
-0.340
-0.330
-0.320
-0.320
-0.335
-0.350
-0.335
-0.335
-0.335
-0.340
-0.350
-0.355
-0.360
-0.355
-0.345
-0.340
-0.360
-0.370
-0.370
-0.360
-0.365
-0.365
-0.365
-0.375
-0.380
-0.365
-0.360
-0.365
-0.365
-0.355
-0.345
-0.330
-0.320
-0.315
-0.310
-0.305
-0.295
-0.280
-0.265
-0.250
-0.260
-0.255
-0.265
-0.250
-0.235
-0.230
-0.230
-0.240
-0.240
-0.230
-0.220
-0.215
-0.225
-0.235
-0.225
-0.235
-0.215
-0.225
-0.235
-0.245
-0.245
-0.240
-0.225
-0.230
-0.235
-0.250
-0.250
-0.245
-0.230
-0.230
-0.245
-0.255
-0.250
-0.250
-0.230
-0.240
-0.240
-0.245
-0.245
-0.235
-0.240
-0.235
-0.245
-0.255
-0.250
-0.245
-0.245
-0.240
-0.255
-0.275
-0.275
-0.260
-0.270
-0.265
-0.265
-0.275
-0.275
-0.265
-0.265
-0.265
-0.275
-0.285
-0.275
-0.285
-0.265
-0.265
-0.265
-0.275
-0.285
-0.270
-0.270
-0.270
-0.265
-0.280
-0.270
-0.270
-0.270
-0.265
-0.275
-0.285
-0.280
-0.275
-0.275
-0.275
-0.290
-0.295
-0.300
-0.285
-0.275
-0.280
-0.280
-0.295
-0.300
-0.290
-0.280
-0.270
-0.285
-0.300
-0.290
-0.280
-0.270
-0.265
-0.275
-0.285
-0.285
-0.265
-0.260
-0.265
-0.285
-0.285
-0.280
-0.260
-0.245
-0.235
-0.225
-0.225
-0.220
-0.220
-0.200
-0.205
-0.210
-0.215
-0.200
-0.180
-0.185
-0.175
-0.180
-0.180
-0.175
-0.160
-0.155
-0.155
-0.185
-0.195
-0.195
-0.195
-0.180
-0.190
-0.195
-0.210
-0.205
-0.170
-0.150
-0.170
-0.200
-0.245
-0.255
-0.255
-0.250
-0.255
-0.280
-0.305
-0.310
-0.300
-0.295
-0.300
-0.310
-0.310
-0.315
-0.310
-0.310
-0.315
-0.320
-0.320
-0.320
-0.310
-0.305
-0.315
-0.320
-0.320
-0.320
-0.310
-0.315
-0.310
-0.330
-0.370
-0.410
-0.420
-0.425
-0.440
-0.485
-0.530
-0.540
-0.460
-0.340
-0.200
-0.075
0.090
0.335
0.610
0.835
0.970
1.035
0.980
0.755
0.400
0.040
-0.260
-0.415
-0.450
-0.410
-0.355
-0.320
-0.330
-0.350
-0.360
-0.350
-0.345
-0.350
-0.345
-0.350
-0.375
-0.360
-0.370
-0.355
-0.350
-0.365
-0.370
-0.375
-0.360
-0.360
-0.355
-0.360
-0.370
-0.360
-0.350
-0.355
-0.350
-0.360
-0.375
-0.370
-0.355
-0.345
-0.350
-0.360
-0.370
-0.370
-0.370
-0.355
-0.350
-0.365
-0.375
-0.360
-0.370
-0.355
-0.345
-0.355
-0.360
-0.370
-0.350
-0.345
-0.345
-0.355
-0.365
-0.360
-0.350
-0.345
-0.355
-0.350
-0.365
-0.370
-0.355
-0.355
-0.360
-0.360
-0.365
-0.355
-0.355
-0.350
-0.350
-0.360
-0.380
-0.375
-0.365
-0.350
-0.355
-0.360
-0.360
-0.370
-0.365
-0.360
-0.355
-0.365
-0.375
-0.390
-0.375
-0.365
-0.375
-0.370
-0.375
-0.380
-0.380
-0.365
-0.360
-0.360
-0.350
-0.350
-0.335
-0.320
-0.320
-0.305
-0.295
-0.305
-0.280
-0.260
-0.260
-0.255
-0.260
-0.270
-0.250
-0.245
-0.250
-0.260
-0.270
-0.260
-0.255
-0.250
-0.260
-0.265
-0.270
-0.275
-0.260
-0.250
-0.255
-0.270
-0.270
-0.270
-0.260
-0.255
-0.255
-0.265
-0.270
-0.270
-0.275
-0.265
-0.260
-0.265
-0.280
-0.280
-0.270
-0.265
-0.275
-0.275
-0.285
-0.285
-0.280
-0.275
-0.280
-0.290
-0.295
-0.295
-0.280
-0.280
-0.290
-0.290
-0.300
-0.295
-0.285
-0.275
-0.280
-0.285
-0.305
-0.290
-0.300
-0.300
-0.295
-0.305
-0.310
-0.310
-0.300
-0.295
-0.290
-0.310
-0.310
-0.320
-0.305
-0.300
-0.295
-0.300
-0.310
-0.305
-0.300
-0.285
-0.290
-0.305
-0.310
-0.315
-0.305
-0.300
-0.290
-0.290
-0.300
-0.305
-0.310
-0.285
-0.285
-0.290
-0.305
-0.305
-0.295
-0.285
-0.285
-0.290
-0.305
-0.300
-0.295
-0.280
-0.280
-0.285
-0.280
-0.270
-0.250
-0.230
-0.225
-0.225
-0.240
-0.235
-0.210
-0.185
-0.185
-0.190
-0.185
-0.195
-0.180
-0.175
-0.185
-0.200
-0.215
-0.215
-0.205
-0.195
-0.205
-0.220
-0.215
-0.200
-0.175
-0.180
-0.200
-0.230
-0.265
-0.265
-0.275
-0.280
-0.290
-0.315
-0.320
-0.325
-0.310
-0.305
-0.310
-0.310
-0.325
-0.325
-0.315
-0.310
-0.315
-0.320
-0.320
-0.330
-0.335
-0.315
-0.320
-0.325
-0.330
-0.330
-0.330
-0.320
-0.330
-0.335
-0.350
-0.370
-0.405
-0.435
-0.440
-0.500
-0.540
-0.540
-0.460
-0.315
-0.160
0.000
0.240
0.520
0.755
0.870
0.820
0.585
0.205
-0.180
-0.415
-0.450
-0.420
-0.385
-0.370
-0.365
-0.355
-0.335
-0.345
-0.340
-0.360
-0.360
-0.350
-0.355
-0.360
-0.365
-0.370
-0.370
-0.365
-0.355
-0.360
-0.365
-0.375
-0.375
-0.365
-0.345
-0.370
-0.375
-0.370
-0.375
-0.365
-0.350
-0.345
-0.345
-0.350
-0.360
-0.360
-0.355
-0.360
-0.355
-0.365
-0.375
-0.360
-0.350
-0.365
-0.350
-0.360
-0.385
-0.365
-0.350
-0.345
-0.360
-0.385
-0.380
-0.370
-0.360
-0.355
-0.350
-0.360
-0.355
-0.340
-0.330
-0.340
-0.345
-0.350
-0.360
-0.355
-0.355
-0.350
-0.365
-0.370
-0.380
-0.360
-0.355
-0.360
-0.375
-0.370
-0.375
-0.365
-0.370
-0.370
-0.375
-0.390
-0.385
-0.380
-0.360
-0.365
-0.370
-0.375
-0.390
-0.370
-0.355
-0.370
-0.375
-0.370
-0.375
-0.355
-0.340
-0.340
-0.335
-0.330
-0.320
-0.310
-0.305
-0.310
-0.305
-0.310
-0.305
-0.280
-0.270
-0.280
-0.270
-0.275
-0.285
-0.290
-0.285
-0.300
-0.285
-0.295
-0.305
-0.300
-0.300
-0.300
-0.305
-0.320
-0.315
-0.300
-0.275
-0.295
-0.305
-0.315
-0.315
-0.305
-0.305
-0.315
-0.315
-0.320
-0.315
-0.325
-0.310
-0.325
-0.325
-0.325
-0.325
-0.325
-0.315
-0.330
-0.345
-0.350
-0.355
-0.345
-0.320
-0.335
-0.335
-0.335
-0.345
-0.335
-0.330
-0.335
-0.340
-0.355
-0.355
-0.355
-0.330
-0.335
-0.345
-0.350
-0.345
-0.350
-0.340
-0.350
-0.360
-0.360
-0.360
-0.345
-0.340
-0.340
-0.340
-0.345
-0.350
-0.345
-0.335
-0.340
-0.355
-0.360
-0.360
-0.335
-0.340
-0.335
-0.340
-0.350
-0.360
-0.350
-0.340
-0.340
-0.350
-0.335
-0.320
-0.305
-0.290
-0.295
-0.295
-0.290
-0.285
-0.270
-0.265
-0.250
-0.245
-0.250
-0.245
-0.235
-0.220
-0.235
-0.235
-0.245
-0.245
-0.255
-0.245
-0.260
-0.265
-0.275
-0.295
-0.285
-0.255
-0.245
-0.250
-0.270
-0.300
-0.305
-0.315
-0.340
-0.350
-0.360
-0.370
-0.360
-0.355
-0.360
-0.370
-0.385
-0.380
-0.365
-0.365
-0.370
-0.375
-0.385
-0.385
-0.390
-0.390
-0.370
-0.370
-0.395
-0.400
-0.380
-0.380
-0.375
-0.390
-0.400
-0.410
-0.420
-0.440
-0.470
-0.500
-0.535
-0.575
-0.580
-0.500
-0.390
-0.260
-0.105
0.115
0.405
0.665
0.835
0.855
0.675
0.290
-0.105
-0.375
-0.485
-0.510
-0.480
-0.450
-0.420
-0.415
-0.415
-0.415
-0.420
-0.430
-0.410
-0.390
-0.400
-0.410
-0.405
-0.415
-0.405
-0.405
-0.405
-0.410
-0.420
-0.420
-0.420
-0.400
-0.405
-0.420
-0.415
-0.415
-0.415
-0.400
-0.410
-0.420
-0.425
-0.435
-0.410
-0.400
-0.390
-0.410
-0.420
-0.425
-0.410
-0.400
-0.405
-0.425
-0.415
-0.420
-0.420
-0.415
-0.405
-0.415
-0.410
-0.410
-0.405
-0.405
-0.410
-0.420
-0.425
-0.415
-0.405
-0.395
-0.390
-0.405
-0.415
-0.415
-0.395
-0.390
-0.385
-0.400
-0.415
-0.420
-0.425
-0.405
-0.415
-0.435
-0.440
-0.435
-0.435
-0.430
-0.430
-0.470
-0.470
-0.470
-0.455
-0.445
-0.460
-0.460
-0.465
-0.480
-0.470
-0.460
-0.450
-0.460
-0.465
-0.440
-0.420
-0.410
-0.395
-0.385
-0.380
-0.375
-0.365
-0.340
-0.355
-0.345
-0.345
-0.330
-0.335
-0.315
-0.315
-0.320
-0.315
-0.320
-0.310
-0.305
-0.310
-0.315
-0.310
-0.325
-0.315
-0.300
-0.300
-0.305
