winSize, paaSize, aSize, approximationDistance, minObservedCoverage, maxObservedCoverage, meanCoverage, numZeroRuns, maxZeroRunLength, grammarSize, zeroCoverageLength
50, 3, 3, 25.540109366759623, 2, 10, 6.0, 0, 0, 130, 0
50, 3, 4, 24.99082907614179, 1, 13, 6.0, 0, 0, 160, 0
50, 3, 5, 24.653246985348808, 1, 15, 8.0, 0, 0, 306, 0
50, 3, 6, 24.279443119710834, 1, 18, 8.0, 0, 0, 338, 0
50, 3, 7, 24.265651225129346, 1, 22, 9.0, 0, 0, 431, 0
50, 3, 8, 24.148424215908243, 0, 18, 8.0, 2, 6, 443, 12
50, 3, 9, 24.253072882952686, 1, 22, 10.0, 0, 0, 515, 0
50, 3, 10, 24.267844120878774, 0, 20, 10.0, 1, 4, 575, 4
50, 3, 11, 24.335288054752137, 0, 22, 11.0, 1, 4, 654, 4
50, 4, 3, 20.347156036817026, 1, 12, 7.0, 0, 0, 236, 0
50, 4, 4, 19.640188441729357, 1, 15, 7.0, 0, 0, 312, 0
50, 4, 5, 19.871386969608242, 0, 18, 8.0, 1, 8, 407, 8
50, 4, 6, 19.965808615270806, 0, 17, 9.0, 2, 9, 471, 17
50, 4, 7, 19.694799050718114, 1, 24, 11.0, 0, 0, 669, 0
50, 4, 8, 19.487782510859137, 0, 24, 11.0, 1, 8, 767, 8
50, 4, 9, 19.581434744951316, 1, 23, 11.0, 0, 0, 789, 0
50, 4, 10, 19.434502822565065, 0, 23, 11.0, 1, 8, 951, 8
50, 4, 11, 19.276394160687673, 0, 24, 12.0, 1, 10, 1000, 10
50, 5, 3, 16.05179916177909, 1, 11, 6.0, 0, 0, 275, 0
50, 5, 4, 15.973815029439304, 1, 18, 8.0, 0, 0, 439, 0
50, 5, 5, 16.162152722409015, 0, 22, 11.0, 1, 9, 627, 9
50, 5, 6, 15.95836020728721, 0, 25, 12.0, 1, 7, 690, 7
50, 5, 7, 15.887728666469556, 0, 24, 11.0, 2, 17, 849, 19
50, 5, 8, 15.642781184800443, 0, 23, 11.0, 1, 13, 938, 13
50, 5, 9, 15.560935405501056, 0, 27, 13.0, 1, 6, 1052, 6
50, 5, 10, 15.483952577521586, 0, 26, 12.0, 1, 12, 1184, 12
50, 5, 11, 15.444661327351177, 0, 25, 11.0, 3, 14, 1198, 27
50, 6, 3, 13.970093499612002, 0, 16, 7.0, 1, 6, 361, 6
50, 6, 4, 14.01178007862718, 2, 23, 10.0, 0, 0, 511, 0
50, 6, 5, 13.974658138639477, 0, 22, 10.0, 1, 9, 739, 9
50, 6, 6, 13.802679677101697, 0, 23, 10.0, 2, 10, 828, 17
50, 6, 7, 13.848455051919766, 1, 23, 12.0, 0, 0, 1031, 0
50, 6, 8, 13.696416339788664, 0, 28, 13.0, 1, 16, 1144, 16
50, 6, 9, 13.666731737097859, 0, 27, 13.0, 1, 13, 1278, 13
50, 6, 10, 13.534739692167472, 0, 29, 13.0, 2, 16, 1374, 29
50, 6, 11, 13.50830550193095, 0, 27, 12.0, 3, 22, 1403, 45
50, 7, 3, 11.71147677617532, 1, 17, 9.0, 0, 0, 457, 0
50, 7, 4, 11.477895740569602, 1, 22, 10.0, 0, 0, 648, 0
50, 7, 5, 11.506766879373808, 0, 25, 12.0, 1, 15, 863, 15
50, 7, 6, 11.548432225457482, 0, 24, 12.0, 1, 12, 976, 12
50, 7, 7, 11.436078104619057, 0, 26, 13.0, 1, 18, 1186, 18
50, 7, 8, 11.413295330266804, 0, 28, 12.0, 1, 15, 1314, 15
50, 7, 9, 11.366862421365022, 0, 27, 12.0, 3, 18, 1376, 51
50, 7, 10, 11.290306361477452, 0, 23, 10.0, 1, 69, 1567, 69
50, 7, 11, 11.24976132608999, 0, 25, 10.0, 3, 19, 1534, 40
50, 8, 3, 11.19524600577263, 1, 21, 9.0, 0, 0, 554, 0
50, 8, 4, 10.93362435445991, 1, 23, 11.0, 0, 0, 719, 0
50, 8, 5, 10.801226915783293, 0, 31, 14.0, 2, 8, 1119, 15
50, 8, 6, 10.83468332674176, 0, 26, 11.0, 2, 65, 1121, 82
50, 8, 7, 10.794158434082041, 0, 28, 13.0, 2, 111, 1335, 135
50, 8, 8, 10.78008806774, 0, 28, 12.0, 1, 15, 1364, 15
50, 8, 9, 10.733322031134497, 0, 22, 10.0, 2, 21, 1441, 37
50, 8, 10, 10.6409395067386, 0, 25, 9.0, 2, 17, 1657, 33
50, 8, 11, 10.632490117789144, 0, 25, 9.0, 3, 81, 1599, 120
50, 9, 3, 15.396436482473575, 0, 22, 9.0, 1, 5, 606, 5
50, 9, 4, 15.083844458711107, 1, 28, 12.0, 0, 0, 869, 0
50, 9, 5, 15.032486500475947, 0, 27, 13.0, 2, 12, 1168, 21
50, 9, 6, 14.93327975478166, 0, 24, 11.0, 3, 34, 1208, 75
50, 9, 7, 14.990345822245061, 0, 28, 12.0, 3, 35, 1350, 82
50, 9, 8, 14.906365260987073, 0, 27, 11.0, 1, 14, 1449, 14
50, 9, 9, 14.8559301018708, 0, 22, 10.0, 2, 65, 1524, 87
50, 9, 10, 14.83227165842938, 0, 24, 8.0, 2, 114, 1651, 149
50, 9, 11, 14.732608948281918, 0, 26, 8.0, 4, 71, 1660, 116
50, 10, 3, 8.042679473635985, 1, 20, 10.0, 0, 0, 691, 0
50, 10, 4, 7.9331447225772225, 0, 27, 12.0, 1, 1, 911, 1
50, 10, 5, 7.859726720544513, 0, 26, 12.0, 2, 23, 1226, 41
50, 10, 6, 7.803558970697842, 0, 34, 13.0, 3, 24, 1298, 42
50, 10, 7, 7.794618714673354, 0, 30, 11.0, 3, 26, 1451, 68
50, 10, 8, 7.764577051264563, 0, 24, 10.0, 1, 140, 1510, 140
50, 10, 9, 7.72638729989833, 0, 24, 9.0, 4, 31, 1597, 67
50, 10, 10, 7.717071458577972, 0, 20, 7.0, 3, 139, 1708, 179
50, 10, 11, 7.691812448782452, 0, 21, 8.0, 6, 43, 1696, 96
50, 11, 3, 17.18646593392663, 0, 21, 11.0, 2, 14, 707, 28
50, 11, 4, 16.997887542287664, 0, 27, 13.0, 2, 10, 1038, 15
50, 11, 5, 17.04034031992047, 0, 28, 12.0, 2, 14, 1321, 27
50, 11, 6, 16.88253988676362, 0, 29, 11.0, 4, 38, 1396, 81
50, 11, 7, 16.803744295237692, 0, 24, 10.0, 2, 57, 1521, 88
50, 11, 8, 16.770464635596515, 0, 27, 10.0, 2, 139, 1618, 169
50, 11, 9, 16.68241383110696, 0, 22, 9.0, 3, 77, 1629, 116
50, 11, 10, 16.596468421312956, 0, 21, 6.0, 6, 43, 1715, 117
50, 11, 11, 16.603962676822693, 0, 20, 6.0, 6, 149, 1732, 224
50, 12, 3, 8.463155757250448, 0, 23, 11.0, 1, 17, 831, 17
50, 12, 4, 8.341143093247906, 0, 28, 13.0, 2, 22, 1038, 41
50, 12, 5, 8.234610595968253, 0, 26, 12.0, 2, 19, 1394, 34
50, 12, 6, 8.216943329943467, 0, 23, 10.0, 4, 66, 1465, 99
50, 12, 7, 8.150636791429434, 0, 24, 9.0, 2, 83, 1608, 105
50, 12, 8, 8.120289047383107, 0, 23, 9.0, 2, 140, 1633, 167
50, 12, 9, 8.075719948990923, 0, 22, 8.0, 4, 32, 1686, 92
50, 12, 10, 8.056743371901051, 0, 21, 6.0, 3, 154, 1746, 195
50, 12, 11, 8.048538090087822, 0, 16, 5.0, 11, 115, 1745, 226
50, 13, 3, 27.83285150208798, 1, 23, 11.0, 0, 0, 848, 0
50, 13, 4, 27.70612037566835, 0, 28, 13.0, 1, 2, 1122, 2
50, 13, 5, 27.57296144202207, 0, 25, 11.0, 2, 17, 1472, 32
50, 13, 6, 27.409304217834155, 0, 26, 10.0, 5, 30, 1521, 88
50, 13, 7, 27.350262957815254, 0, 23, 9.0, 3, 37, 1652, 100
50, 13, 8, 27.289743804443763, 0, 25, 8.0, 4, 110, 1694, 154
50, 13, 9, 27.184417046154998, 0, 21, 7.0, 5, 112, 1709, 159
50, 13, 10, 27.13301763092345, 0, 17, 4.0, 9, 101, 1764, 250
50, 13, 11, 27.07676912058287, 0, 14, 4.0, 10, 81, 1748, 178
50, 14, 3, 21.740552170610336, 0, 24, 12.0, 1, 21, 946, 21
50, 14, 4, 21.43089208914415, 0, 30, 13.0, 2, 20, 1223, 26
50, 14, 5, 21.43651668043321, 0, 23, 10.0, 3, 25, 1482, 56
50, 14, 6, 21.342746429632474, 0, 23, 9.0, 4, 70, 1555, 115
50, 14, 7, 21.17381966053381, 0, 22, 7.0, 5, 68, 1675, 126
50, 14, 8, 21.1784329451802, 0, 21, 7.0, 3, 138, 1665, 182
50, 14, 9, 21.11098516549872, 0, 21, 6.0, 8, 72, 1730, 154
50, 14, 10, 21.04949935381693, 0, 15, 4.0, 12, 76, 1751, 181
50, 14, 11, 21.025579348772904, 0, 15, 3.0, 14, 144, 1764, 426
50, 15, 3, 14.511703696094097, 0, 23, 11.0, 1, 22, 956, 22
50, 15, 4, 14.479023260976948, 0, 26, 12.0, 1, 61, 1219, 61
50, 15, 5, 14.375235969367798, 0, 25, 10.0, 3, 40, 1532, 68
50, 15, 6, 14.31723027072, 0, 22, 8.0, 5, 82, 1555, 116
50, 15, 7, 14.245828935161745, 0, 16, 7.0, 3, 94, 1681, 125
50, 15, 8, 14.190285589551694, 0, 22, 7.0, 2, 145, 1718, 168
50, 15, 9, 14.213641151812833, 0, 21, 6.0, 3, 140, 1712, 186
50, 15, 10, 14.160107858066278, 0, 13, 3.0, 10, 57, 1770, 161
50, 15, 11, 14.168212538475672, 0, 12, 3.0, 12, 188, 1752, 436
50, 16, 3, 7.307222171652214, 0, 24, 12.0, 1, 13, 1067, 13
50, 16, 4, 7.171939727543165, 0, 27, 12.0, 1, 59, 1265, 59
50, 16, 5, 7.1148348771825916, 0, 25, 10.0, 1, 11, 1630, 11
50, 16, 6, 7.137516276143417, 0, 23, 9.0, 5, 82, 1590, 137
50, 16, 7, 7.092780606302639, 0, 16, 6.0, 5, 70, 1706, 181
50, 16, 8, 7.0539189509094635, 0, 27, 6.0, 8, 143, 1723, 265
50, 16, 9, 7.052094784602977, 0, 19, 5.0, 6, 180, 1742, 241
50, 16, 10, 7.038210211759851, 0, 12, 3.0, 12, 105, 1770, 304
50, 16, 11, 7.040520901863454, 0, 14, 3.0, 12, 200, 1756, 495
50, 17, 3, 37.30617644776154, 0, 25, 11.0, 1, 6, 1073, 6
50, 17, 4, 36.75219433736812, 0, 23, 11.0, 2, 5, 1310, 9
50, 17, 5, 36.5202518809074, 0, 23, 9.0, 4, 29, 1606, 55
50, 17, 6, 36.554620605329625, 0, 22, 8.0, 7, 98, 1624, 160
50, 17, 7, 36.452810695430166, 0, 16, 6.0, 5, 89, 1714, 178
50, 17, 8, 36.31907301278452, 0, 18, 6.0, 5, 41, 1748, 85
50, 17, 9, 36.27151460026618, 0, 17, 5.0, 5, 185, 1754, 286
50, 17, 10, 36.23595868745851, 0, 13, 2.0, 11, 188, 1764, 514
50, 17, 11, 36.20336847674782, 0, 12, 2.0, 15, 182, 1757, 584
60, 3, 3, 32.05973632683481, 1, 13, 7.0, 0, 0, 175, 0
60, 3, 4, 31.152628333593018, 3, 12, 7.0, 0, 0, 157, 0
60, 3, 5, 31.40666430064538, 3, 16, 8.0, 0, 0, 301, 0
60, 3, 6, 31.245126871402533, 3, 15, 9.0, 0, 0, 280, 0
60, 3, 7, 31.043532799717518, 2, 22, 10.0, 0, 0, 408, 0
60, 3, 8, 30.991937293101152, 3, 25, 12.0, 0, 0, 476, 0
60, 3, 9, 31.307452896058063, 3, 24, 14.0, 0, 0, 522, 0
60, 3, 10, 31.232213086430928, 3, 26, 13.0, 0, 0, 614, 0
60, 3, 11, 31.171619181093522, 3, 22, 12.0, 0, 0, 646, 0
60, 4, 3, 26.126916895759525, 2, 12, 7.0, 0, 0, 195, 0
60, 4, 4, 26.1943856021661, 2, 19, 10.0, 0, 0, 344, 0
60, 4, 5, 26.232835108946688, 3, 18, 9.0, 0, 0, 466, 0
60, 4, 6, 25.69087817230638, 3, 22, 12.0, 0, 0, 509, 0
60, 4, 7, 25.664671229219355, 1, 25, 11.0, 0, 0, 668, 0
60, 4, 8, 25.65778846299766, 2, 29, 15.0, 0, 0, 784, 0
60, 4, 9, 25.508461682677474, 2, 31, 14.0, 0, 0, 875, 0
60, 4, 10, 25.187492970880957, 2, 28, 15.0, 0, 0, 970, 0
60, 4, 11, 25.376285677829458, 0, 28, 15.0, 1, 1, 1082, 1
60, 5, 3, 21.829369926593962, 4, 17, 9.0, 0, 0, 297, 0
60, 5, 4, 21.964048410913556, 2, 23, 11.0, 0, 0, 475, 0
60, 5, 5, 21.306402987918727, 1, 21, 11.0, 0, 0, 669, 0
60, 5, 6, 21.66947758758836, 2, 21, 12.0, 0, 0, 704, 0
60, 5, 7, 21.369783613992798, 2, 24, 13.0, 0, 0, 894, 0
60, 5, 8, 21.371591441350983, 3, 33, 15.0, 0, 0, 994, 0
60, 5, 9, 21.20812607419583, 2, 28, 16.0, 0, 0, 1131, 0
60, 5, 10, 21.041954087756814, 1, 30, 15.0, 0, 0, 1242, 0
60, 5, 11, 21.078943794147175, 0, 29, 15.0, 1, 7, 1298, 7
60, 6, 3, 18.15668815175342, 2, 20, 10.0, 0, 0, 386, 0
60, 6, 4, 18.39069465862562, 2, 23, 12.0, 0, 0, 567, 0
60, 6, 5, 18.10236261211708, 3, 26, 14.0, 0, 0, 864, 0
60, 6, 6, 18.22197552623999, 2, 31, 14.0, 0, 0, 927, 0
60, 6, 7, 18.053820024046352, 1, 30, 16.0, 0, 0, 1082, 0
60, 6, 8, 18.073520150587505, 2, 30, 15.0, 0, 0, 1128, 0
60, 6, 9, 17.733546200481403, 0, 37, 17.0, 1, 2, 1345, 2
60, 6, 10, 17.70885496255437, 1, 34, 16.0, 0, 0, 1500, 0
60, 6, 11, 17.635886218054107, 0, 32, 16.0, 1, 8, 1510, 8
60, 7, 3, 18.522331320356574, 0, 19, 10.0, 1, 4, 491, 4
60, 7, 4, 18.315120498029646, 1, 24, 13.0, 0, 0, 676, 0
60, 7, 5, 18.286465527640306, 4, 29, 17.0, 0, 0, 1026, 0
60, 7, 6, 18.225640649150304, 1, 32, 16.0, 0, 0, 1023, 0
60, 7, 7, 18.199685298211094, 2, 33, 16.0, 0, 0, 1245, 0
60, 7, 8, 18.04670840127103, 0, 32, 16.0, 1, 2, 1352, 2
60, 7, 9, 18.061915763539137, 1, 34, 16.0, 0, 0, 1506, 0
60, 7, 10, 17.88416767313315, 0, 30, 14.0, 1, 1, 1685, 1
60, 7, 11, 17.85536937283429, 0, 29, 14.0, 1, 42, 1664, 42
60, 8, 3, 17.31983318907976, 2, 20, 11.0, 0, 0, 584, 0
60, 8, 4, 17.02000857306586, 0, 29, 13.0, 1, 4, 793, 4
60, 8, 5, 17.03076139079954, 1, 29, 15.0, 0, 0, 1121, 0
60, 8, 6, 17.04379741519249, 0, 34, 16.0, 1, 3, 1244, 3
60, 8, 7, 16.865750698318696, 1, 31, 16.0, 0, 0, 1445, 0
60, 8, 8, 16.805957883891985, 0, 33, 16.0, 2, 5, 1492, 10
60, 8, 9, 16.734544533054226, 0, 35, 15.0, 1, 1, 1650, 1
60, 8, 10, 16.688658568169025, 0, 28, 12.0, 2, 60, 1718, 79
60, 8, 11, 16.662907107566372, 0, 33, 12.0, 2, 98, 1761, 106
60, 9, 3, 20.723560471543085, 2, 23, 11.0, 0, 0, 646, 0
60, 9, 4, 20.364043917717737, 0, 25, 13.0, 1, 3, 903, 3
60, 9, 5, 20.20184628871613, 1, 29, 15.0, 0, 0, 1264, 0
60, 9, 6, 20.135038481541944, 0, 31, 15.0, 2, 10, 1353, 11
60, 9, 7, 20.08193893108959, 0, 32, 16.0, 1, 13, 1532, 13
60, 9, 8, 20.075500368624212, 0, 32, 14.0, 2, 71, 1600, 74
60, 9, 9, 20.009998308698172, 0, 27, 12.0, 3, 53, 1667, 66
60, 9, 10, 19.95680399826192, 0, 26, 10.0, 2, 70, 1807, 86
60, 9, 11, 19.931438163404003, 0, 27, 10.0, 2, 100, 1828, 107
60, 10, 3, 10.763516765551053, 1, 20, 12.0, 0, 0, 715, 0
60, 10, 4, 10.823831080085617, 2, 27, 14.0, 0, 0, 1005, 0
60, 10, 5, 10.770595651616672, 1, 32, 16.0, 0, 0, 1330, 0
60, 10, 6, 10.665838267180352, 0, 30, 14.0, 1, 55, 1403, 55
60, 10, 7, 10.680453743656425, 0, 31, 14.0, 2, 60, 1593, 62
60, 10, 8, 10.69819655815851, 0, 30, 13.0, 2, 76, 1607, 80
60, 10, 9, 10.70277474317344, 0, 25, 11.0, 3, 72, 1710, 102
60, 10, 10, 10.668606918744313, 0, 24, 10.0, 2, 65, 1814, 74
60, 10, 11, 10.652059319882738, 0, 25, 9.0, 3, 130, 1871, 162
60, 11, 3, 17.69047397736217, 1, 22, 12.0, 0, 0, 765, 0
60, 11, 4, 17.259437265897265, 1, 28, 14.0, 0, 0, 1077, 0
60, 11, 5, 17.385780072159623, 1, 29, 15.0, 0, 0, 1401, 0
60, 11, 6, 17.172481594254556, 0, 27, 13.0, 2, 6, 1516, 7
60, 11, 7, 17.10040199298596, 0, 29, 12.0, 1, 67, 1615, 67
60, 11, 8, 17.12962559659916, 0, 26, 11.0, 2, 77, 1688, 87
60, 11, 9, 17.056312828378683, 0, 29, 10.0, 2, 67, 1785, 72
60, 11, 10, 17.11914633192501, 0, 22, 7.0, 4, 128, 1834, 170
60, 11, 11, 17.082954906358218, 0, 22, 8.0, 5, 33, 1874, 58
60, 12, 3, 9.093767271180212, 2, 28, 14.0, 0, 0, 865, 0
60, 12, 4, 9.025888586283777, 1, 31, 15.0, 0, 0, 1146, 0
60, 12, 5, 8.982410581538113, 1, 28, 15.0, 0, 0, 1508, 0
60, 12, 6, 8.97323116519134, 0, 31, 13.0, 1, 65, 1575, 65
60, 12, 7, 8.922613122052596, 0, 32, 12.0, 2, 5, 1722, 7
60, 12, 8, 8.916900191832456, 0, 30, 12.0, 2, 124, 1715, 137
60, 12, 9, 8.891793329099261, 0, 33, 11.0, 2, 100, 1803, 115
60, 12, 10, 8.881388707364684, 0, 19, 7.0, 4, 62, 1891, 86
60, 12, 11, 8.868612528155962, 0, 18, 6.0, 4, 160, 1885, 189
60, 13, 3, 24.829910957408917, 0, 26, 13.0, 1, 22, 932, 22
60, 13, 4, 24.567415399216934, 1, 32, 15.0, 0, 0, 1239, 0
60, 13, 5, 24.45780936310058, 0, 27, 14.0, 1, 21, 1594, 21
60, 13, 6, 24.510952777490076, 0, 29, 12.0, 3, 63, 1652, 75
60, 13, 7, 24.418173678259272, 0, 26, 11.0, 1, 58, 1809, 58
60, 13, 8, 24.416780533687156, 0, 29, 10.0, 3, 128, 1781, 150
60, 13, 9, 24.296036515209867, 0, 26, 9.0, 4, 124, 1856, 153
60, 13, 10, 24.2568138808093, 0, 17, 6.0, 6, 91, 1880, 142
60, 13, 11, 24.259292141004202, 0, 19, 5.0, 5, 162, 1884, 255
60, 14, 3, 14.590146165919284, 1, 28, 15.0, 0, 0, 1060, 0
60, 14, 4, 14.355278267491718, 1, 33, 16.0, 0, 0, 1304, 0
60, 14, 5, 14.249380712289927, 0, 25, 12.0, 2, 22, 1639, 23
60, 14, 6, 14.203460675952503, 0, 30, 12.0, 1, 78, 1746, 78
60, 14, 7, 14.18540955645825, 0, 24, 9.0, 2, 76, 1814, 88
60, 14, 8, 14.131650520188048, 0, 30, 10.0, 2, 124, 1827, 136
60, 14, 9, 14.099777339518011, 0, 23, 8.0, 5, 126, 1875, 188
60, 14, 10, 14.083121050389888, 0, 18, 5.0, 5, 174, 1884, 253
60, 14, 11, 14.065956275498099, 0, 19, 4.0, 7, 166, 1889, 302
60, 15, 3, 7.275299428590364, 2, 29, 16.0, 0, 0, 1051, 0
60, 15, 4, 7.313668578342087, 0, 29, 15.0, 2, 51, 1336, 54
60, 15, 5, 7.264440002001931, 0, 26, 12.0, 2, 83, 1704, 93
60, 15, 6, 7.22111502661622, 0, 30, 11.0, 3, 93, 1770, 111
60, 15, 7, 7.20320641363284, 0, 23, 8.0, 3, 87, 1831, 113
60, 15, 8, 7.1886813202063955, 0, 26, 8.0, 4, 164, 1828, 199
60, 15, 9, 7.168730234515916, 0, 26, 7.0, 6, 122, 1871, 167
60, 15, 10, 7.16161937305352, 0, 15, 4.0, 8, 163, 1893, 304
60, 15, 11, 7.155890533408925, 0, 16, 3.0, 11, 199, 1881, 417
60, 16, 3, 34.06410958475682, 0, 27, 14.0, 1, 1, 1149, 1
60, 16, 4, 33.89183550469905, 0, 36, 15.0, 2, 28, 1384, 31
60, 16, 5, 33.97041888528538, 0, 29, 11.0, 2, 123, 1699, 130
60, 16, 6, 33.72521632403707, 0, 26, 10.0, 2, 161, 1764, 177
60, 16, 7, 33.63608571567055, 0, 20, 8.0, 4, 153, 1869, 169
60, 16, 8, 33.62239458780372, 0, 27, 8.0, 6, 169, 1838, 223
60, 16, 9, 33.61682069774083, 0, 24, 6.0, 6, 124, 1876, 194
60, 16, 10, 33.57115742632726, 0, 18, 4.0, 9, 181, 1892, 342
60, 16, 11, 33.55187083528046, 0, 15, 3.0, 13, 169, 1902, 411
60, 17, 3, 27.469474289508295, 1, 27, 14.0, 0, 0, 1146, 0
60, 17, 4, 27.33701936582932, 0, 28, 13.0, 3, 30, 1495, 42
60, 17, 5, 27.171407465423194, 0, 24, 10.0, 3, 125, 1714, 134
60, 17, 6, 27.049249191340323, 0, 24, 9.0, 2, 145, 1805, 160
60, 17, 7, 26.96992249654786, 0, 25, 8.0, 5, 92, 1869, 132
60, 17, 8, 26.95060906706474, 0, 24, 7.0, 5, 167, 1873, 195
60, 17, 9, 26.93708305764388, 0, 19, 5.0, 7, 170, 1892, 279
60, 17, 10, 26.942819727498485, 0, 11, 2.0, 10, 184, 1883, 415
60, 17, 11, 26.92404296635542, 0, 16, 3.0, 10, 173, 1905, 438
70, 3, 3, 40.37151471259371, 3, 13, 7.0, 0, 0, 144, 0
70, 3, 4, 39.507099586692284, 3, 19, 9.0, 0, 0, 237, 0
70, 3, 5, 40.28614484491783, 3, 17, 9.0, 0, 0, 270, 0
70, 3, 6, 39.75421146281849, 3, 17, 10.0, 0, 0, 296, 0
70, 3, 7, 39.61372279742511, 3, 23, 12.0, 0, 0, 434, 0
70, 3, 8, 39.29040863535979, 4, 25, 14.0, 0, 0, 539, 0
70, 3, 9, 39.66426652931507, 3, 24, 13.0, 0, 0, 566, 0
70, 3, 10, 40.072146739464216, 5, 26, 15.0, 0, 0, 488, 0
70, 3, 11, 39.64210021465361, 4, 26, 14.0, 0, 0, 700, 0
70, 4, 3, 33.582088052234006, 4, 16, 9.0, 0, 0, 255, 0
70, 4, 4, 33.590032089136315, 1, 18, 10.0, 0, 0, 343, 0
70, 4, 5, 33.0695839098465, 3, 20, 11.0, 0, 0, 501, 0
70, 4, 6, 32.71251869203054, 5, 23, 13.0, 0, 0, 585, 0
70, 4, 7, 32.74345971562991, 5, 25, 14.0, 0, 0, 754, 0
70, 4, 8, 32.49956752109198, 3, 24, 14.0, 0, 0, 754, 0
70, 4, 9, 32.54331922117828, 4, 27, 15.0, 0, 0, 873, 0
70, 4, 10, 32.57148526708881, 4, 26, 14.0, 0, 0, 987, 0
70, 4, 11, 32.68551065030446, 2, 27, 14.0, 0, 0, 1008, 0
70, 5, 3, 27.7816429297438, 3, 16, 10.0, 0, 0, 382, 0
70, 5, 4, 28.023936437296648, 2, 18, 10.0, 0, 0, 469, 0
70, 5, 5, 27.743136965322414, 3, 24, 12.0, 0, 0, 659, 0
70, 5, 6, 27.830052989781855, 3, 24, 13.0, 0, 0, 755, 0
70, 5, 7, 27.67000727200088, 5, 30, 16.0, 0, 0, 954, 0
70, 5, 8, 27.409309006923465, 3, 27, 15.0, 0, 0, 1007, 0
70, 5, 9, 27.354415394781732, 1, 32, 17.0, 0, 0, 1190, 0
70, 5, 10, 27.077949186437017, 2, 32, 18.0, 0, 0, 1297, 0
70, 5, 11, 27.17594031890409, 1, 31, 16.0, 0, 0, 1331, 0
70, 6, 3, 26.479070242998507, 2, 20, 11.0, 0, 0, 412, 0
70, 6, 4, 25.692073492294725, 1, 26, 13.0, 0, 0, 596, 0
70, 6, 5, 25.522786177364345, 3, 33, 17.0, 0, 0, 880, 0
70, 6, 6, 25.59879739759811, 3, 28, 15.0, 0, 0, 960, 0
70, 6, 7, 25.301757436054807, 2, 36, 17.0, 0, 0, 1134, 0
70, 6, 8, 25.266377143415106, 1, 36, 18.0, 0, 0, 1230, 0
70, 6, 9, 24.999317085636015, 2, 37, 18.0, 0, 0, 1376, 0
70, 6, 10, 25.05886487969264, 0, 32, 15.0, 1, 5, 1480, 5
70, 6, 11, 24.873394696006894, 0, 32, 15.0, 1, 46, 1568, 46
70, 7, 3, 20.74629158207217, 1, 19, 10.0, 0, 0, 487, 0
70, 7, 4, 20.760030135996388, 1, 25, 14.0, 0, 0, 713, 0
70, 7, 5, 20.503604048621977, 2, 30, 16.0, 0, 0, 996, 0
70, 7, 6, 20.663457764153918, 1, 33, 16.0, 0, 0, 1101, 0
70, 7, 7, 20.3743450182921, 0, 34, 18.0, 1, 48, 1312, 48
70, 7, 8, 20.377972554814914, 2, 33, 18.0, 0, 0, 1440, 0
70, 7, 9, 20.063786943546084, 0, 43, 20.0, 1, 46, 1575, 46
70, 7, 10, 20.075023359535212, 1, 32, 16.0, 0, 0, 1661, 0
70, 7, 11, 19.95665630144089, 0, 34, 15.0, 1, 18, 1755, 18
70, 8, 3, 24.76341834047622, 2, 20, 12.0, 0, 0, 591, 0
70, 8, 4, 24.54786661623097, 2, 30, 17.0, 0, 0, 838, 0
70, 8, 5, 24.534313764914277, 2, 34, 19.0, 0, 0, 1142, 0
70, 8, 6, 24.37375742155464, 2, 33, 18.0, 0, 0, 1282, 0
70, 8, 7, 24.381697612011166, 1, 35, 18.0, 0, 0, 1430, 0
70, 8, 8, 24.215686950674666, 0, 38, 18.0, 1, 4, 1561, 4
70, 8, 9, 24.06052787244714, 2, 35, 17.0, 0, 0, 1712, 0
70, 8, 10, 24.05858886328999, 0, 32, 15.0, 1, 111, 1803, 111
70, 8, 11, 23.875666832313232, 1, 31, 14.0, 0, 0, 1860, 0
70, 9, 3, 26.073650253780826, 0, 23, 12.0, 1, 42, 656, 42
70, 9, 4, 25.939119180921228, 2, 31, 16.0, 0, 0, 923, 0
70, 9, 5, 25.982932423440275, 1, 34, 18.0, 0, 0, 1252, 0
70, 9, 6, 25.865003302921497, 1, 36, 18.0, 0, 0, 1426, 0
70, 9, 7, 25.717476590758004, 1, 38, 18.0, 0, 0, 1599, 0
70, 9, 8, 25.55075738554669, 0, 34, 16.0, 1, 18, 1720, 18
70, 9, 9, 25.530811956984028, 1, 33, 16.0, 0, 0, 1817, 0
70, 9, 10, 25.430480893975457, 0, 30, 14.0, 1, 76, 1899, 76
70, 9, 11, 25.402245874062594, 0, 37, 14.0, 1, 144, 1931, 144
70, 10, 3, 14.082957969367847, 1, 25, 15.0, 0, 0, 780, 0
70, 10, 4, 14.068715830411396, 1, 30, 16.0, 0, 0, 1076, 0
70, 10, 5, 14.104886892910356, 1, 31, 17.0, 0, 0, 1377, 0
70, 10, 6, 14.012121623705594, 0, 34, 17.0, 1, 17, 1555, 17
70, 10, 7, 14.110503280931168, 0, 38, 17.0, 1, 59, 1700, 59
70, 10, 8, 14.119592242029407, 0, 34, 14.0, 2, 56, 1758, 68
70, 10, 9, 14.07625594378035, 0, 34, 14.0, 1, 36, 1892, 36
70, 10, 10, 14.094799462859292, 1, 27, 12.0, 0, 0, 1934, 0
70, 10, 11, 14.05908616151009, 0, 30, 10.0, 1, 148, 1979, 148
70, 11, 3, 17.986936409380153, 0, 24, 14.0, 1, 11, 857, 11
70, 11, 4, 17.646431989131592, 0, 33, 17.0, 1, 38, 1137, 38
70, 11, 5, 17.82171315522832, 0, 34, 17.0, 1, 39, 1458, 39
70, 11, 6, 17.71312013911175, 0, 36, 16.0, 1, 89, 1599, 89
70, 11, 7, 17.61969549768455, 0, 35, 15.0, 1, 74, 1732, 74
70, 11, 8, 17.667079520284336, 0, 29, 13.0, 1, 52, 1801, 52
70, 11, 9, 17.610421180485815, 0, 31, 12.0, 1, 134, 1871, 134
70, 11, 10, 17.563307924543327, 0, 30, 10.0, 1, 140, 1947, 140
70, 11, 11, 17.613005569888212, 0, 24, 9.0, 2, 114, 1985, 119
70, 12, 3, 33.10088467188464, 1, 29, 15.0, 0, 0, 896, 0
70, 12, 4, 32.586869442193986, 0, 32, 17.0, 1, 1, 1320, 1
70, 12, 5, 32.71981521423337, 0, 32, 16.0, 1, 58, 1555, 58
70, 12, 6, 32.49458439636068, 0, 35, 15.0, 1, 118, 1677, 118
70, 12, 7, 32.34746911398469, 0, 32, 14.0, 1, 49, 1770, 49
70, 12, 8, 32.278949844723556, 0, 28, 12.0, 1, 122, 1849, 122
70, 12, 9, 32.29842362127265, 0, 28, 11.0, 1, 127, 1865, 127
70, 12, 10, 32.197673948953195, 0, 24, 9.0, 1, 96, 1977, 96
70, 12, 11, 32.28240204117785, 0, 28, 7.0, 1, 120, 1978, 120
70, 13, 3, 19.507500075657706, 1, 26, 14.0, 0, 0, 963, 0
70, 13, 4, 19.53181447628676, 0, 36, 18.0, 1, 2, 1327, 2
70, 13, 5, 19.530125783222914, 0, 28, 15.0, 1, 58, 1676, 58
70, 13, 6, 19.420497767247564, 0, 30, 14.0, 2, 20, 1735, 27
70, 13, 7, 19.317486332451445, 0, 32, 13.0, 1, 58, 1849, 58
70, 13, 8, 19.36015736174315, 0, 27, 11.0, 1, 74, 1869, 74
70, 13, 9, 19.35835707887496, 0, 30, 11.0, 1, 159, 1938, 159
70, 13, 10, 19.33734189846448, 0, 20, 7.0, 2, 147, 2017, 150
70, 13, 11, 19.340016010902914, 0, 25, 7.0, 3, 156, 1989, 171
70, 14, 3, 10.23519197836428, 0, 27, 15.0, 1, 39, 1049, 39
70, 14, 4, 10.240763367678815, 0, 32, 18.0, 1, 12, 1376, 12
70, 14, 5, 10.156247374526146, 1, 30, 15.0, 0, 0, 1740, 0
70, 14, 6, 10.128843710629635, 0, 28, 14.0, 1, 142, 1863, 142
70, 14, 7, 10.08293448323218, 0, 29, 12.0, 2, 72, 1886, 73
70, 14, 8, 10.07371873203816, 0, 26, 10.0, 1, 85, 1929, 85
70, 14, 9, 10.066856697949493, 0, 27, 10.0, 2, 153, 1953, 156
70, 14, 10, 10.057775664324565, 0, 21, 7.0, 2, 150, 2035, 157
70, 14, 11, 10.06341200067717, 0, 23, 5.0, 4, 157, 2019, 171
70, 15, 3, 33.213595236104, 0, 31, 15.0, 1, 53, 1043, 53
70, 15, 4, 32.925417313274366, 0, 33, 17.0, 1, 1, 1533, 1
70, 15, 5, 32.83886291802825, 0, 28, 14.0, 1, 58, 1762, 58
70, 15, 6, 32.76303362306577, 0, 27, 11.0, 1, 77, 1903, 77
70, 15, 7, 32.72000287360181, 0, 27, 11.0, 1, 91, 1946, 91
70, 15, 8, 32.71770201417852, 0, 23, 9.0, 1, 86, 1966, 86
70, 15, 9, 32.64071856841472, 0, 28, 8.0, 4, 110, 2001, 126
70, 15, 10, 32.597918212241574, 0, 22, 6.0, 3, 132, 2042, 140
70, 15, 11, 32.585578742432176, 0, 22, 5.0, 7, 152, 2038, 192
70, 16, 3, 22.461012937197424, 0, 34, 16.0, 1, 55, 1188, 55
70, 16, 4, 22.127986372690447, 0, 34, 17.0, 1, 15, 1545, 15
70, 16, 5, 22.03167750462585, 0, 31, 15.0, 1, 80, 1840, 80
70, 16, 6, 21.92705197259237, 0, 29, 12.0, 1, 137, 1948, 137
70, 16, 7, 21.918200315244906, 0, 28, 10.0, 1, 79, 1957, 79
70, 16, 8, 21.870085488634345, 0, 23, 8.0, 1, 83, 1971, 83
70, 16, 9, 21.83680743671685, 0, 22, 7.0, 2, 144, 2001, 159
70, 16, 10, 21.804204898131406, 0, 15, 5.0, 4, 153, 2032, 168
70, 16, 11, 21.81121788138323, 0, 16, 4.0, 8, 170, 2032, 256
70, 17, 3, 10.80074641534179, 0, 30, 14.0, 1, 60, 1196, 60
70, 17, 4, 10.675564303330075, 2, 33, 15.0, 0, 0, 1568, 0
70, 17, 5, 10.593428993913895, 0, 31, 14.0, 1, 110, 1871, 110
70, 17, 6, 10.554010847883923, 0, 31, 11.0, 1, 141, 1944, 141
70, 17, 7, 10.538384671258259, 0, 24, 9.0, 1, 152, 1964, 152
70, 17, 8, 10.546555579401813, 0, 22, 7.0, 2, 83, 1993, 110
70, 17, 9, 10.510354882948693, 0, 20, 6.0, 4, 177, 2003, 238
70, 17, 10, 10.50494647055025, 0, 14, 4.0, 7, 157, 2019, 210
70, 17, 11, 10.498680024589264, 0, 17, 3.0, 13, 153, 2031, 351
80, 3, 3, 50.56456527344936, 3, 12, 6.0, 0, 0, 164, 0
80, 3, 4, 47.72975067191871, 4, 17, 9.0, 0, 0, 167, 0
80, 3, 5, 48.40898685666102, 5, 22, 11.0, 0, 0, 313, 0
80, 3, 6, 48.17069479847316, 4, 19, 10.0, 0, 0, 281, 0
80, 3, 7, 47.444527611805356, 3, 23, 14.0, 0, 0, 455, 0
80, 3, 8, 47.76566119800224, 5, 26, 15.0, 0, 0, 457, 0
80, 3, 9, 48.69282007207028, 4, 25, 14.0, 0, 0, 527, 0
80, 3, 10, 48.63919227039253, 8, 24, 14.0, 0, 0, 557, 0
80, 3, 11, 47.86159708962651, 5, 30, 16.0, 0, 0, 710, 0
80, 4, 3, 40.00258191104169, 2, 18, 9.0, 0, 0, 236, 0
80, 4, 4, 39.26227104905128, 2, 21, 12.0, 0, 0, 379, 0
80, 4, 5, 38.61404435736043, 1, 25, 14.0, 0, 0, 550, 0
80, 4, 6, 38.53477622311766, 4, 26, 14.0, 0, 0, 626, 0
80, 4, 7, 38.68718877754758, 5, 28, 16.0, 0, 0, 730, 0
80, 4, 8, 38.56578158502128, 1, 28, 16.0, 0, 0, 803, 0
80, 4, 9, 38.50160743062314, 2, 30, 17.0, 0, 0, 929, 0
80, 4, 10, 38.50993615721788, 1, 33, 18.0, 0, 0, 1024, 0
80, 4, 11, 38.4471308396001, 3, 33, 19.0, 0, 0, 1035, 0
80, 5, 3, 33.49603982916898, 4, 24, 10.0, 0, 0, 298, 0
80, 5, 4, 34.30884107686747, 4, 23, 13.0, 0, 0, 537, 0
80, 5, 5, 34.036485632868974, 3, 24, 15.0, 0, 0, 664, 0
80, 5, 6, 33.79894684618158, 2, 30, 18.0, 0, 0, 809, 0
80, 5, 7, 33.71054581918196, 1, 27, 16.0, 0, 0, 902, 0
80, 5, 8, 33.480745737732526, 2, 30, 19.0, 0, 0, 1121, 0
80, 5, 9, 33.31027849675236, 2, 34, 20.0, 0, 0, 1232, 0
80, 5, 10, 33.18509876582715, 3, 34, 20.0, 0, 0, 1344, 0
80, 5, 11, 33.05044618163109, 1, 32, 19.0, 0, 0, 1427, 0
80, 6, 3, 30.757774606867034, 3, 22, 12.0, 0, 0, 444, 0
80, 6, 4, 30.288265155570503, 3, 24, 15.0, 0, 0, 630, 0
80, 6, 5, 29.530945342443733, 5, 27, 15.0, 0, 0, 844, 0
80, 6, 6, 30.16102135994498, 3, 30, 16.0, 0, 0, 966, 0
80, 6, 7, 29.628965381719134, 1, 31, 18.0, 0, 0, 1080, 0
80, 6, 8, 29.68782560782022, 1, 34, 18.0, 0, 0, 1290, 0
80, 6, 9, 29.348135594603093, 2, 34, 19.0, 0, 0, 1418, 0
80, 6, 10, 29.090211132846086, 1, 33, 19.0, 0, 0, 1541, 0
80, 6, 11, 29.109245434102952, 1, 36, 18.0, 0, 0, 1600, 0
80, 7, 3, 27.430119092269354, 4, 23, 11.0, 0, 0, 504, 0
80, 7, 4, 27.284996805958762, 1, 30, 17.0, 0, 0, 776, 0
80, 7, 5, 26.57569824437783, 4, 31, 19.0, 0, 0, 1088, 0
80, 7, 6, 26.92434432536287, 1, 31, 19.0, 0, 0, 1178, 0
80, 7, 7, 26.84206411630816, 3, 33, 18.0, 0, 0, 1258, 0
80, 7, 8, 26.663691054345573, 1, 39, 21.0, 0, 0, 1482, 0
80, 7, 9, 26.367836768044572, 1, 39, 20.0, 0, 0, 1553, 0
80, 7, 10, 26.285980247977054, 0, 36, 18.0, 1, 3, 1720, 3
80, 7, 11, 26.25074003122953, 0, 35, 16.0, 1, 42, 1759, 42
80, 8, 3, 22.978762753476023, 1, 22, 12.0, 0, 0, 566, 0
80, 8, 4, 22.657585022908044, 2, 30, 17.0, 0, 0, 881, 0
80, 8, 5, 22.647545744509642, 4, 36, 20.0, 0, 0, 1205, 0
80, 8, 6, 22.565173591418095, 1, 36, 19.0, 0, 0, 1352, 0
80, 8, 7, 22.45247340430056, 1, 40, 20.0, 0, 0, 1506, 0
80, 8, 8, 22.30747298909822, 1, 36, 20.0, 0, 0, 1693, 0
80, 8, 9, 22.199780343989666, 0, 41, 20.0, 1, 38, 1720, 38
80, 8, 10, 22.154250028714532, 0, 38, 18.0, 1, 37, 1853, 37
80, 8, 11, 21.98565281098365, 0, 32, 15.0, 1, 80, 1983, 80
80, 9, 3, 31.844299450582657, 0, 23, 12.0, 1, 29, 629, 29
80, 9, 4, 31.71167275030913, 1, 31, 19.0, 0, 0, 1037, 0
80, 9, 5, 31.53145179383525, 0, 37, 21.0, 1, 38, 1322, 38
80, 9, 6, 31.478392652340837, 0, 37, 20.0, 1, 52, 1469, 52
80, 9, 7, 31.34190841898117, 0, 37, 20.0, 1, 6, 1650, 6
80, 9, 8, 31.242362375359846, 0, 35, 18.0, 1, 17, 1822, 17
80, 9, 9, 31.0949114010572, 0, 36, 18.0, 1, 41, 1861, 41
80, 9, 10, 31.038270941026827, 0, 33, 18.0, 1, 40, 1991, 40
80, 9, 11, 30.892480924308096, 0, 33, 14.0, 1, 125, 2036, 125
80, 10, 3, 17.66538723967393, 3, 24, 13.0, 0, 0, 687, 0
80, 10, 4, 17.755555741668534, 0, 34, 18.0, 1, 52, 1098, 52
80, 10, 5, 17.851403759567855, 2, 39, 21.0, 0, 0, 1431, 0
80, 10, 6, 17.93997832099135, 1, 38, 19.0, 0, 0, 1622, 0
80, 10, 7, 17.929865408448453, 1, 36, 20.0, 0, 0, 1738, 0
80, 10, 8, 17.816183056467054, 0, 37, 18.0, 1, 60, 1974, 60
80, 10, 9, 17.776762997848245, 0, 43, 17.0, 1, 51, 1991, 51
80, 10, 10, 17.757561465548534, 0, 32, 14.0, 1, 53, 2046, 53
80, 10, 11, 17.707891480216567, 0, 35, 13.0, 1, 126, 2124, 126
80, 11, 3, 19.05175636852837, 2, 30, 16.0, 0, 0, 822, 0
80, 11, 4, 18.989054029608898, 1, 34, 19.0, 0, 0, 1226, 0
80, 11, 5, 18.881099850096007, 1, 36, 19.0, 0, 0, 1552, 0
80, 11, 6, 18.848520350209178, 0, 38, 17.0, 1, 60, 1695, 60
80, 11, 7, 18.771398042807956, 0, 42, 19.0, 1, 105, 1854, 105
80, 11, 8, 18.791577957168375, 0, 35, 15.0, 1, 18, 1954, 18
80, 11, 9, 18.723596981815394, 0, 40, 15.0, 1, 81, 2019, 81
80, 11, 10, 18.74980982139411, 0, 33, 12.0, 1, 99, 2090, 99
80, 11, 11, 18.732165035370482, 0, 27, 10.0, 1, 113, 2122, 113
80, 12, 3, 30.617450274686487, 0, 28, 15.0, 1, 28, 877, 28
80, 12, 4, 30.469224514358682, 0, 29, 17.0, 1, 5, 1326, 5
80, 12, 5, 30.66819495059299, 0, 33, 18.0, 1, 65, 1655, 65
80, 12, 6, 30.447299134534855, 0, 41, 18.0, 1, 110, 1801, 110
80, 12, 7, 30.328294132799694, 0, 32, 15.0, 1, 69, 1812, 69
80, 12, 8, 30.282522022128532, 0, 32, 15.0, 1, 79, 2018, 79
80, 12, 9, 30.266842436798957, 0, 31, 13.0, 2, 43, 2024, 61
80, 12, 10, 30.275062373571078, 0, 32, 10.0, 1, 135, 2100, 135
80, 12, 11, 30.266511921965094, 0, 24, 9.0, 1, 111, 2129, 111
80, 13, 3, 15.309364052989766, 2, 28, 15.0, 0, 0, 1001, 0
80, 13, 4, 15.225922490751655, 1, 34, 18.0, 0, 0, 1454, 0
80, 13, 5, 15.328524688036712, 0, 40, 18.0, 1, 68, 1717, 68
80, 13, 6, 15.220403616938388, 0, 40, 15.0, 1, 121, 1804, 121
80, 13, 7, 15.203246963882673, 0, 29, 14.0, 1, 105, 1942, 105
80, 13, 8, 15.143196391324722, 0, 25, 11.0, 1, 64, 2014, 64
80, 13, 9, 15.166147627401346, 0, 37, 14.0, 1, 117, 2055, 117
80, 13, 10, 15.160404104549222, 0, 31, 9.0, 1, 108, 2117, 108
80, 13, 11, 15.133571833901543, 0, 22, 7.0, 2, 110, 2126, 111
80, 14, 3, 35.957917152841844, 1, 31, 16.0, 0, 0, 1055, 0
80, 14, 4, 35.789064700666756, 0, 35, 19.0, 1, 9, 1506, 9
80, 14, 5, 35.71497667089123, 0, 36, 17.0, 1, 123, 1787, 123
80, 14, 6, 35.775283743620676, 1, 33, 14.0, 0, 0, 1874, 0
80, 14, 7, 35.58341121474942, 0, 33, 14.0, 1, 84, 1961, 84
80, 14, 8, 35.51317054156214, 0, 25, 10.0, 1, 117, 2053, 117
80, 14, 9, 35.59965660073924, 0, 31, 11.0, 1, 124, 2054, 124
80, 14, 10, 35.5359688257554, 0, 24, 8.0, 1, 137, 2136, 137
80, 14, 11, 35.57412256855885, 0, 21, 6.0, 3, 149, 2158, 173
80, 15, 3, 21.50824796543772, 1, 29, 16.0, 0, 0, 1114, 0
80, 15, 4, 21.582244980861347, 0, 36, 19.0, 1, 4, 1560, 4
80, 15, 5, 21.48888070077448, 0, 39, 17.0, 1, 43, 1872, 43
80, 15, 6, 21.52672414879914, 0, 29, 13.0, 1, 116, 2000, 116
80, 15, 7, 21.357628638128883, 0, 33, 14.0, 1, 91, 2025, 91
80, 15, 8, 21.344383907455793, 0, 23, 10.0, 1, 71, 2108, 71
80, 15, 9, 21.334978006411617, 0, 31, 10.0, 1, 123, 2117, 123
80, 15, 10, 21.346650366451712, 0, 21, 7.0, 1, 151, 2143, 151
80, 15, 11, 21.32914205901314, 0, 20, 6.0, 3, 169, 2172, 181
80, 16, 3, 11.232312030466764, 0, 29, 15.0, 1, 29, 1154, 29
80, 16, 4, 11.255432049899317, 0, 41, 20.0, 1, 4, 1639, 4
80, 16, 5, 11.231466269187749, 0, 39, 15.0, 1, 118, 1935, 118
80, 16, 6, 11.154897904133698, 0, 30, 13.0, 1, 61, 2045, 61
80, 16, 7, 11.117717317897533, 0, 29, 12.0, 1, 93, 2020, 93
80, 16, 8, 11.124008756133541, 0, 21, 8.0, 1, 122, 2108, 122
80, 16, 9, 11.122521508928475, 0, 27, 9.0, 4, 110, 2127, 126
80, 16, 10, 11.108137358070156, 0, 23, 7.0, 1, 134, 2147, 134
80, 16, 11, 11.105899233257272, 0, 19, 4.0, 3, 151, 2152, 183
80, 17, 3, 41.620564776470864, 0, 33, 17.0, 1, 33, 1221, 33
80, 17, 4, 41.226939507981065, 0, 36, 18.0, 1, 3, 1777, 3
80, 17, 5, 41.18182195685696, 0, 34, 15.0, 1, 102, 1908, 102
80, 17, 6, 41.19089703732839, 0, 33, 12.0, 1, 120, 2085, 120
80, 17, 7, 41.05985420056013, 0, 28, 12.0, 1, 128, 2106, 128
80, 17, 8, 41.06254792556213, 0, 17, 7.0, 2, 126, 2149, 145
80, 17, 9, 41.05035461229639, 0, 28, 8.0, 5, 128, 2164, 142
80, 17, 10, 41.01221920654478, 0, 20, 6.0, 2, 147, 2163, 181
80, 17, 11, 40.982761665279156, 0, 18, 4.0, 5, 141, 2182, 215
90, 3, 3, 55.71016211331291, 3, 15, 9.0, 0, 0, 138, 0
90, 3, 4, 53.31679008966237, 3, 17, 9.0, 0, 0, 201, 0
90, 3, 5, 55.401805955095995, 4, 18, 10.0, 0, 0, 257, 0
90, 3, 6, 53.8918909539591, 4, 23, 12.0, 0, 0, 282, 0
90, 3, 7, 52.75625214616023, 5, 21, 13.0, 0, 0, 424, 0
90, 3, 8, 54.12118260302016, 6, 25, 14.0, 0, 0, 438, 0
90, 3, 9, 55.03048519144167, 5, 25, 15.0, 0, 0, 494, 0
90, 3, 10, 54.434171903744726, 5, 24, 13.0, 0, 0, 451, 0
90, 3, 11, 54.231148048133186, 4, 28, 16.0, 0, 0, 625, 0
90, 4, 3, 46.8640272589849, 3, 13, 8.0, 0, 0, 201, 0
90, 4, 4, 45.46559938104907, 5, 20, 12.0, 0, 0, 385, 0
90, 4, 5, 45.78045613391994, 7, 21, 14.0, 0, 0, 479, 0
90, 4, 6, 45.63649931217944, 4, 23, 13.0, 0, 0, 524, 0
90, 4, 7, 45.319578737786934, 4, 28, 17.0, 0, 0, 653, 0
90, 4, 8, 45.22929106500823, 4, 27, 17.0, 0, 0, 801, 0
90, 4, 9, 45.194145392778665, 6, 34, 20.0, 0, 0, 898, 0
90, 4, 10, 45.41351357374934, 5, 31, 18.0, 0, 0, 951, 0
90, 4, 11, 45.00258604561208, 3, 34, 20.0, 0, 0, 1051, 0
90, 5, 3, 40.45735860923438, 3, 18, 10.0, 0, 0, 288, 0
90, 5, 4, 40.83736562848841, 4, 23, 14.0, 0, 0, 538, 0
90, 5, 5, 39.77962478783971, 1, 26, 16.0, 0, 0, 686, 0
90, 5, 6, 40.237352939196455, 4, 33, 19.0, 0, 0, 736, 0
90, 5, 7, 40.4096833228409, 3, 34, 19.0, 0, 0, 942, 0
90, 5, 8, 39.66477215214668, 1, 36, 21.0, 0, 0, 1080, 0
90, 5, 9, 39.391288644854676, 1, 40, 22.0, 0, 0, 1190, 0
90, 5, 10, 39.448704055924075, 2, 36, 22.0, 0, 0, 1340, 0
90, 5, 11, 39.65744047385787, 1, 35, 19.0, 0, 0, 1305, 0
90, 6, 3, 35.481062684644044, 2, 17, 9.0, 0, 0, 341, 0
90, 6, 4, 35.540965519231904, 6, 28, 17.0, 0, 0, 640, 0
90, 6, 5, 34.93749594012376, 2, 37, 19.0, 0, 0, 912, 0
90, 6, 6, 35.13047416456924, 1, 32, 18.0, 0, 0, 869, 0
90, 6, 7, 35.326362140835066, 1, 36, 22.0, 0, 0, 1080, 0
90, 6, 8, 35.06838703880758, 0, 38, 21.0, 1, 34, 1287, 34
90, 6, 9, 34.77135047014386, 0, 35, 21.0, 1, 22, 1338, 22
90, 6, 10, 34.505633035085445, 1, 36, 21.0, 0, 0, 1555, 0
90, 6, 11, 34.48367095978288, 1, 35, 20.0, 0, 0, 1568, 0
90, 7, 3, 36.6746871960711, 2, 25, 13.0, 0, 0, 425, 0
90, 7, 4, 35.08790322411283, 1, 26, 16.0, 0, 0, 740, 0
90, 7, 5, 34.5694937147619, 4, 34, 21.0, 0, 0, 1054, 0
90, 7, 6, 35.29615745744259, 2, 36, 19.0, 0, 0, 1090, 0
90, 7, 7, 34.81625335691738, 1, 34, 20.0, 0, 0, 1188, 0
90, 7, 8, 34.809456711912915, 0, 38, 20.0, 1, 14, 1436, 14
90, 7, 9, 34.66267960143912, 1, 39, 22.0, 0, 0, 1559, 0
90, 7, 10, 34.291481427295004, 1, 38, 20.0, 0, 0, 1719, 0
90, 7, 11, 34.20146467505713, 0, 35, 19.0, 1, 8, 1776, 8
90, 8, 3, 28.68261998191034, 2, 23, 10.0, 0, 0, 487, 0
90, 8, 4, 28.75230779151091, 1, 29, 18.0, 0, 0, 904, 0
90, 8, 5, 28.074215759003643, 2, 38, 21.0, 0, 0, 1163, 0
90, 8, 6, 28.308734024492786, 2, 41, 24.0, 0, 0, 1352, 0
90, 8, 7, 28.42165434731244, 0, 38, 21.0, 1, 37, 1361, 37
90, 8, 8, 28.225440415988842, 0, 35, 19.0, 1, 48, 1686, 48
90, 8, 9, 27.795152072815274, 0, 42, 22.0, 1, 29, 1640, 29
90, 8, 10, 27.613230876709075, 1, 40, 20.0, 0, 0, 1906, 0
90, 8, 11, 27.588367622728683, 0, 35, 16.0, 1, 32, 1942, 32
90, 9, 3, 25.201868827155476, 1, 27, 15.0, 0, 0, 596, 0
90, 9, 4, 24.553965884241087, 0, 34, 21.0, 1, 7, 980, 7
90, 9, 5, 24.687303338753896, 0, 42, 22.0, 1, 19, 1325, 19
90, 9, 6, 24.64407748430295, 2, 42, 23.0, 0, 0, 1477, 0
90, 9, 7, 24.47551179195606, 0, 52, 24.0, 1, 38, 1611, 38
90, 9, 8, 24.440316003469068, 0, 40, 20.0, 1, 39, 1804, 39
90, 9, 9, 24.229649360714724, 0, 50, 24.0, 1, 35, 1843, 35
90, 9, 10, 24.19448298193793, 0, 43, 18.0, 1, 50, 1994, 50
90, 9, 11, 24.077226147658973, 0, 28, 14.0, 1, 33, 2012, 33
90, 10, 3, 21.811254430324784, 2, 23, 13.0, 0, 0, 676, 0
90, 10, 4, 21.79480565862766, 1, 38, 22.0, 0, 0, 1168, 0
90, 10, 5, 22.098481956003358, 1, 39, 23.0, 0, 0, 1482, 0
90, 10, 6, 22.292368701260237, 1, 45, 22.0, 0, 0, 1595, 0
90, 10, 7, 22.069272769691906, 1, 46, 23.0, 0, 0, 1817, 0
90, 10, 8, 21.819266110839695, 0, 41, 19.0, 1, 42, 1980, 42
90, 10, 9, 21.83304635485017, 0, 46, 21.0, 1, 27, 1940, 27
90, 10, 10, 21.78354414336709, 0, 41, 16.0, 1, 60, 2038, 60
90, 10, 11, 21.686968443279206, 0, 34, 15.0, 1, 32, 2147, 32
90, 11, 3, 20.915100341306633, 0, 30, 16.0, 1, 39, 758, 39
90, 11, 4, 20.839731781307616, 0, 38, 22.0, 1, 34, 1245, 34
90, 11, 5, 21.09358688954156, 0, 43, 23.0, 1, 23, 1532, 23
90, 11, 6, 21.066032844032065, 0, 45, 22.0, 1, 32, 1783, 32
90, 11, 7, 21.17263242975079, 0, 42, 20.0, 1, 37, 1805, 37
90, 11, 8, 21.026441486740232, 0, 36, 18.0, 1, 105, 2091, 105
90, 11, 9, 21.007467547702515, 0, 43, 18.0, 1, 65, 2048, 65
90, 11, 10, 20.991241617981355, 0, 34, 14.0, 1, 95, 2098, 95
90, 11, 11, 20.924790081897765, 0, 26, 11.0, 1, 124, 2167, 124
90, 12, 3, 28.468910223151806, 2, 35, 14.0, 0, 0, 822, 0
90, 12, 4, 28.55278769122217, 0, 41, 21.0, 1, 20, 1393, 20
90, 12, 5, 28.179093388357334, 0, 38, 20.0, 1, 14, 1705, 14
90, 12, 6, 28.335465766383432, 0, 38, 18.0, 1, 95, 1756, 95
90, 12, 7, 28.183335338320408, 1, 35, 18.0, 0, 0, 1944, 0
90, 12, 8, 28.229864534867296, 0, 30, 14.0, 1, 56, 2048, 56
90, 12, 9, 28.135725347616564, 0, 40, 17.0, 1, 122, 2088, 122
90, 12, 10, 28.0150061635406, 0, 36, 13.0, 1, 127, 2163, 127
90, 12, 11, 28.05348634868366, 0, 29, 11.0, 1, 118, 2176, 118
90, 13, 3, 44.29958786449776, 0, 27, 16.0, 1, 40, 910, 40
90, 13, 4, 44.31468725241667, 0, 34, 21.0, 1, 11, 1415, 11
90, 13, 5, 44.362315994655255, 0, 40, 20.0, 1, 23, 1732, 23
90, 13, 6, 44.21843746038976, 0, 38, 19.0, 1, 90, 1829, 90
90, 13, 7, 44.10261076516841, 0, 31, 15.0, 1, 111, 1914, 111
90, 13, 8, 44.1456245951721, 0, 28, 13.0, 1, 99, 2085, 99
90, 13, 9, 43.929798633263786, 0, 41, 14.0, 1, 134, 2081, 134
90, 13, 10, 43.99918157227354, 0, 32, 10.0, 1, 119, 2143, 119
90, 13, 11, 43.97804012187124, 0, 24, 9.0, 1, 104, 2154, 104
90, 14, 3, 27.346001236157946, 0, 31, 17.0, 1, 26, 989, 26
90, 14, 4, 27.38121328688261, 0, 38, 19.0, 1, 51, 1494, 51
90, 14, 5, 27.583248448629227, 0, 41, 21.0, 1, 90, 1754, 90
90, 14, 6, 27.40297877393906, 0, 37, 18.0, 1, 16, 1911, 16
90, 14, 7, 27.295250601138363, 0, 37, 16.0, 1, 54, 1967, 54
90, 14, 8, 27.306975053914197, 0, 25, 11.0, 1, 91, 2109, 91
90, 14, 9, 27.279465490118337, 0, 41, 13.0, 1, 120, 2038, 120
90, 14, 10, 27.296576302105994, 0, 33, 11.0, 1, 102, 2155, 102
90, 14, 11, 27.213542735962392, 0, 19, 6.0, 2, 122, 2156, 126
90, 15, 3, 14.358020845022507, 0, 32, 16.0, 1, 4, 1058, 4
90, 15, 4, 14.47517135245263, 0, 33, 19.0, 1, 41, 1595, 41
90, 15, 5, 14.651367438683797, 0, 33, 16.0, 1, 55, 1880, 55
90, 15, 6, 14.513881632299006, 0, 31, 15.0, 1, 103, 1882, 103
90, 15, 7, 14.569675715314764, 0, 32, 14.0, 2, 109, 2019, 123
90, 15, 8, 14.492835489419337, 0, 20, 7.0, 1, 132, 2066, 132
90, 15, 9, 14.569126314256659, 0, 30, 12.0, 2, 130, 2134, 150
90, 15, 10, 14.54530938990212, 0, 19, 7.0, 1, 119, 2143, 119
90, 15, 11, 14.555466643233457, 0, 17, 6.0, 3, 129, 2160, 147
90, 16, 3, 39.12380236674488, 1, 26, 14.0, 0, 0, 1050, 0
90, 16, 4, 39.34384324283462, 0, 39, 21.0, 1, 50, 1707, 50
90, 16, 5, 39.33489744015074, 0, 38, 18.0, 1, 56, 1943, 56
90, 16, 6, 39.344052243481634, 0, 35, 15.0, 1, 92, 2034, 92
90, 16, 7, 39.28370260201299, 0, 28, 12.0, 1, 97, 2028, 97
90, 16, 8, 39.13947789915614, 0, 16, 6.0, 2, 121, 2139, 127
90, 16, 9, 39.2431270855183, 0, 34, 12.0, 1, 120, 2136, 120
90, 16, 10, 39.209465829257816, 0, 25, 7.0, 2, 121, 2195, 137
90, 16, 11, 39.224755263844685, 0, 17, 5.0, 3, 122, 2209, 154
90, 17, 3, 23.540030902552417, 1, 33, 18.0, 0, 0, 1225, 0
90, 17, 4, 23.696010397498345, 0, 38, 21.0, 1, 55, 1668, 55
90, 17, 5, 23.687197716473857, 0, 39, 16.0, 1, 47, 1974, 47
90, 17, 6, 23.553361776880866, 0, 36, 14.0, 1, 122, 2060, 122
90, 17, 7, 23.49253949441083, 0, 28, 13.0, 1, 109, 2126, 109
90, 17, 8, 23.542346134582843, 0, 19, 7.0, 1, 120, 2146, 120
90, 17, 9, 23.448168884682463, 0, 24, 9.0, 1, 136, 2164, 136
90, 17, 10, 23.51176239497005, 0, 22, 7.0, 4, 121, 2175, 169
90, 17, 11, 23.48802794934319, 0, 18, 4.0, 4, 122, 2197, 206
100, 3, 3, 59.01289662007747, 4, 17, 8.0, 0, 0, 142, 0
100, 3, 4, 59.23282977599962, 5, 15, 10.0, 0, 0, 158, 0
100, 3, 5, 60.001751174515014, 5, 19, 10.0, 0, 0, 222, 0
100, 3, 6, 58.80376047530666, 6, 18, 11.0, 0, 0, 242, 0
100, 3, 7, 58.76181646968675, 5, 21, 13.0, 0, 0, 393, 0
100, 3, 8, 59.965615528563895, 9, 28, 16.0, 0, 0, 326, 0
100, 3, 9, 59.974169241957924, 6, 27, 15.0, 0, 0, 505, 0
100, 3, 10, 59.73847248032272, 6, 28, 18.0, 0, 0, 456, 0
100, 3, 11, 59.62048066578645, 6, 31, 18.0, 0, 0, 616, 0
100, 4, 3, 54.52693457607039, 3, 17, 9.0, 0, 0, 204, 0
100, 4, 4, 53.090722366727135, 9, 24, 14.0, 0, 0, 362, 0
100, 4, 5, 53.72072570129739, 5, 24, 14.0, 0, 0, 466, 0
100, 4, 6, 53.90239675265054, 4, 23, 11.0, 0, 0, 457, 0
100, 4, 7, 53.290104498593635, 5, 33, 19.0, 0, 0, 687, 0
100, 4, 8, 53.52171421733029, 6, 30, 17.0, 0, 0, 708, 0
100, 4, 9, 53.34845298317546, 3, 29, 18.0, 0, 0, 823, 0
100, 4, 10, 53.24574020571516, 2, 31, 19.0, 0, 0, 953, 0
100, 4, 11, 53.28059714372078, 3, 32, 20.0, 0, 0, 948, 0
100, 5, 3, 47.616519578687516, 3, 22, 11.0, 0, 0, 266, 0
100, 5, 4, 46.739879909516254, 4, 26, 13.0, 0, 0, 447, 0
100, 5, 5, 46.21803834734063, 3, 30, 19.0, 0, 0, 694, 0
100, 5, 6, 46.206413765789094, 5, 30, 18.0, 0, 0, 739, 0
100, 5, 7, 46.35142596423846, 1, 33, 21.0, 0, 0, 916, 0
100, 5, 8, 45.85426687896444, 1, 35, 21.0, 0, 0, 1042, 0
100, 5, 9, 46.015329585111154, 1, 34, 22.0, 0, 0, 1155, 0
100, 5, 10, 45.972748715973516, 0, 37, 22.0, 1, 15, 1201, 15
100, 5, 11, 46.00095162396688, 1, 42, 23.0, 0, 0, 1247, 0
100, 6, 3, 43.216396190054795, 2, 23, 12.0, 0, 0, 345, 0
100, 6, 4, 43.27870947453561, 2, 27, 17.0, 0, 0, 626, 0
100, 6, 5, 42.59810859137046, 3, 41, 22.0, 0, 0, 859, 0
100, 6, 6, 43.12765084666101, 1, 34, 19.0, 0, 0, 880, 0
100, 6, 7, 43.05398615886252, 1, 31, 20.0, 0, 0, 1091, 0
100, 6, 8, 42.52383913127994, 0, 35, 20.0, 1, 37, 1281, 37
100, 6, 9, 42.329986503973906, 0, 38, 21.0, 1, 37, 1369, 37
100, 6, 10, 41.887459215629455, 2, 38, 23.0, 0, 0, 1480, 0
100, 6, 11, 42.043851857226514, 0, 36, 21.0, 1, 31, 1531, 31
100, 7, 3, 38.984588804746586, 3, 19, 11.0, 0, 0, 438, 0
100, 7, 4, 37.777924333357355, 2, 31, 19.0, 0, 0, 723, 0
100, 7, 5, 37.17627859092026, 3, 30, 20.0, 0, 0, 1025, 0
100, 7, 6, 37.7037097309338, 1, 33, 21.0, 0, 0, 1067, 0
100, 7, 7, 37.51012977472054, 0, 40, 23.0, 1, 14, 1190, 14
100, 7, 8, 37.165654047035005, 0, 34, 20.0, 1, 32, 1439, 32
100, 7, 9, 37.34169535600665, 0, 41, 21.0, 1, 18, 1439, 18
100, 7, 10, 36.669883480811016, 0, 36, 20.0, 1, 18, 1642, 18
100, 7, 11, 36.71546526581434, 0, 36, 20.0, 1, 24, 1726, 24
100, 8, 3, 36.86319880130399, 2, 26, 13.0, 0, 0, 519, 0
100, 8, 4, 35.92651369658493, 1, 33, 19.0, 0, 0, 807, 0
100, 8, 5, 34.98204619436702, 1, 45, 25.0, 0, 0, 1206, 0
100, 8, 6, 35.68097347911594, 2, 37, 20.0, 0, 0, 1202, 0
100, 8, 7, 35.31020448667426, 0, 41, 24.0, 1, 23, 1389, 23
100, 8, 8, 35.27411487473213, 0, 40, 22.0, 1, 38, 1589, 38
100, 8, 9, 35.09711108391741, 0, 42, 23.0, 1, 14, 1646, 14
100, 8, 10, 34.86814938650945, 0, 35, 19.0, 1, 19, 1792, 19
100, 8, 11, 34.53597970544133, 0, 39, 18.0, 1, 33, 1858, 33
100, 9, 3, 30.41794796167032, 1, 19, 10.0, 0, 0, 544, 0
100, 9, 4, 30.23106801153215, 2, 39, 23.0, 0, 0, 1030, 0
100, 9, 5, 30.099939875411707, 1, 37, 23.0, 0, 0, 1274, 0
100, 9, 6, 30.06824542502802, 2, 56, 26.0, 0, 0, 1447, 0
100, 9, 7, 30.084752160050023, 1, 41, 23.0, 0, 0, 1550, 0
100, 9, 8, 29.82615599375788, 0, 40, 21.0, 1, 35, 1766, 35
100, 9, 9, 29.740101225104198, 0, 42, 21.0, 1, 34, 1711, 34
100, 9, 10, 29.35869909592154, 0, 37, 19.0, 1, 33, 2005, 33
100, 9, 11, 29.462807579596433, 0, 34, 16.0, 1, 30, 2009, 30
100, 10, 3, 27.348607163224194, 1, 27, 14.0, 0, 0, 646, 0
100, 10, 4, 26.721668557850798, 0, 41, 24.0, 1, 11, 1104, 11
100, 10, 5, 26.89808681834794, 0, 43, 25.0, 1, 9, 1453, 9
100, 10, 6, 26.87021117097109, 0, 42, 24.0, 1, 27, 1563, 27
100, 10, 7, 26.742482664383544, 0, 45, 24.0, 1, 27, 1681, 27
100, 10, 8, 26.710576007433062, 0, 40, 20.0, 1, 37, 1856, 37
100, 10, 9, 26.48994310311658, 0, 49, 23.0, 1, 20, 1965, 20
100, 10, 10, 26.413227537178113, 0, 41, 19.0, 1, 40, 2083, 40
100, 10, 11, 26.332059007199717, 0, 35, 14.0, 1, 22, 2097, 22
100, 11, 3, 24.331138941554055, 3, 30, 16.0, 0, 0, 746, 0
100, 11, 4, 24.519487651796563, 0, 40, 23.0, 1, 23, 1220, 23
100, 11, 5, 24.406344100979407, 0, 47, 27.0, 1, 41, 1566, 41
100, 11, 6, 24.78568981038916, 1, 44, 22.0, 0, 0, 1691, 0
100, 11, 7, 24.73556051845924, 0, 48, 23.0, 1, 33, 1875, 33
100, 11, 8, 24.43147369732097, 0, 38, 19.0, 1, 50, 2050, 50
100, 11, 9, 24.49247770163221, 0, 39, 20.0, 1, 43, 2030, 43
100, 11, 10, 24.3565483545862, 0, 43, 16.0, 1, 96, 2111, 96
100, 11, 11, 24.294580871594253, 0, 33, 12.0, 1, 108, 2178, 108
100, 12, 3, 26.84552109242304, 1, 29, 14.0, 0, 0, 812, 0
100, 12, 4, 26.877983207202632, 0, 36, 21.0, 1, 9, 1304, 9
100, 12, 5, 26.901903204739334, 0, 41, 24.0, 1, 32, 1646, 32
100, 12, 6, 26.89644471769339, 0, 45, 24.0, 1, 100, 1864, 100
100, 12, 7, 26.955384364633314, 0, 40, 22.0, 1, 36, 1917, 36
100, 12, 8, 26.77549594690816, 0, 38, 17.0, 1, 46, 2102, 46
100, 12, 9, 26.76035699247972, 0, 37, 17.0, 1, 103, 2064, 103
100, 12, 10, 26.725752931540935, 0, 35, 14.0, 1, 110, 2161, 110
100, 12, 11, 26.698746319086425, 0, 29, 10.0, 1, 108, 2195, 108
100, 13, 3, 40.37867949921898, 0, 28, 15.0, 1, 16, 833, 16
100, 13, 4, 40.49702521373659, 0, 45, 26.0, 1, 16, 1410, 16
100, 13, 5, 40.48963862048855, 0, 39, 23.0, 1, 3, 1651, 3
100, 13, 6, 40.410973555253044, 0, 45, 22.0, 1, 63, 1846, 63
100, 13, 7, 40.16298449595848, 1, 43, 20.0, 0, 0, 1988, 0
100, 13, 8, 40.17513173584431, 0, 32, 15.0, 1, 92, 2117, 92
100, 13, 9, 40.12176905754317, 0, 33, 16.0, 1, 111, 2141, 111
100, 13, 10, 40.06702644708162, 0, 31, 13.0, 1, 99, 2204, 99
100, 13, 11, 40.09321526818286, 0, 22, 7.0, 1, 118, 2204, 118
100, 14, 3, 20.320385167098888, 0, 32, 18.0, 1, 23, 997, 23
100, 14, 4, 20.444242649649098, 0, 40, 22.0, 1, 37, 1514, 37
100, 14, 5, 20.5480558455224, 0, 45, 22.0, 1, 55, 1829, 55
100, 14, 6, 20.409999460960034, 0, 35, 18.0, 1, 8, 1824, 8
100, 14, 7, 20.570928337278957, 0, 36, 17.0, 1, 83, 2026, 83
100, 14, 8, 20.46230143285972, 0, 28, 12.0, 1, 100, 2092, 100
100, 14, 9, 20.49672427926075, 0, 33, 14.0, 1, 112, 2118, 112
100, 14, 10, 20.530945997248892, 0, 26, 11.0, 1, 99, 2174, 99
100, 14, 11, 20.50063969820759, 0, 27, 8.0, 1, 126, 2175, 126
100, 15, 3, 42.63726108049904, 1, 31, 18.0, 0, 0, 1047, 0
100, 15, 4, 43.23877097244753, 0, 41, 22.0, 1, 35, 1533, 35
100, 15, 5, 43.47358142278091, 0, 33, 18.0, 1, 9, 1811, 9
100, 15, 6, 43.31158026374833, 0, 35, 17.0, 1, 93, 1914, 93
100, 15, 7, 43.06871502559505, 0, 31, 15.0, 1, 119, 2021, 119
100, 15, 8, 43.08478185858626, 0, 24, 10.0, 1, 103, 2127, 103
100, 15, 9, 42.856185957916054, 0, 27, 11.0, 1, 111, 2136, 111
100, 15, 10, 43.132680250514284, 0, 24, 9.0, 2, 105, 2149, 113
100, 15, 11, 42.873626606374174, 0, 21, 6.0, 2, 124, 2160, 144
100, 16, 3, 23.399814557049588, 0, 36, 21.0, 1, 18, 1167, 18
100, 16, 4, 23.391853368435054, 0, 38, 21.0, 1, 37, 1663, 37
100, 16, 5, 23.554411489074752, 0, 42, 19.0, 1, 20, 1920, 20
100, 16, 6, 23.417392447340575, 0, 36, 16.0, 1, 101, 1975, 101
100, 16, 7, 23.456225765927677, 0, 34, 15.0, 1, 101, 2041, 101
100, 16, 8, 23.40793755797636, 0, 21, 8.0, 2, 101, 2108, 111
100, 16, 9, 23.4108033817304, 0, 28, 11.0, 1, 115, 2119, 115
100, 16, 10, 23.425773118369506, 0, 21, 6.0, 2, 114, 2188, 139
100, 16, 11, 23.423172782539353, 0, 16, 5.0, 2, 112, 2173, 159
100, 17, 3, 56.28862601356679, 0, 32, 17.0, 1, 20, 1194, 20
100, 17, 4, 56.67397564318457, 0, 35, 20.0, 1, 36, 1653, 36
100, 17, 5, 56.642147524893566, 0, 35, 18.0, 1, 89, 1948, 89
100, 17, 6, 56.57131149442803, 0, 29, 14.0, 1, 92, 2007, 92
100, 17, 7, 56.74557354224256, 0, 31, 12.0, 1, 100, 2108, 100
100, 17, 8, 56.29857333637588, 0, 21, 7.0, 1, 104, 2091, 104
100, 17, 9, 56.648767506456736, 0, 27, 10.0, 2, 108, 2170, 126
100, 17, 10, 56.5121624225417, 0, 19, 5.0, 1, 119, 2174, 119
100, 17, 11, 56.51196076548625, 0, 15, 4.0, 4, 120, 2207, 224
110, 3, 3, 64.82867574593709, 2, 17, 8.0, 0, 0, 117, 0
110, 3, 4, 65.62625391292383, 5, 15, 9.0, 0, 0, 150, 0
110, 3, 5, 65.84467173209913, 5, 17, 9.0, 0, 0, 187, 0
110, 3, 6, 65.49467818902154, 5, 24, 14.0, 0, 0, 218, 0
110, 3, 7, 65.47511211599884, 5, 23, 14.0, 0, 0, 329, 0
110, 3, 8, 65.83805805772748, 9, 23, 14.0, 0, 0, 294, 0
110, 3, 9, 65.84113355289097, 7, 29, 17.0, 0, 0, 442, 0
110, 3, 10, 65.64523529701462, 6, 20, 12.0, 0, 0, 336, 0
110, 3, 11, 65.4949689327661, 8, 33, 19.0, 0, 0, 556, 0
110, 4, 3, 63.136137665743185, 3, 17, 8.0, 0, 0, 186, 0
110, 4, 4, 60.79081214281184, 5, 22, 12.0, 0, 0, 338, 0
110, 4, 5, 61.268531325360925, 4, 27, 13.0, 0, 0, 394, 0
110, 4, 6, 62.71902043094881, 4, 21, 12.0, 0, 0, 433, 0
110, 4, 7, 60.83666956809381, 2, 30, 18.0, 0, 0, 626, 0
110, 4, 8, 61.12896195496741, 3, 32, 18.0, 0, 0, 635, 0
110, 4, 9, 61.04586162596371, 2, 30, 17.0, 0, 0, 785, 0
110, 4, 10, 61.10251557597371, 3, 29, 18.0, 0, 0, 817, 0
110, 4, 11, 61.32175597110438, 5, 30, 20.0, 0, 0, 861, 0
110, 5, 3, 54.53203120542365, 5, 19, 11.0, 0, 0, 279, 0
110, 5, 4, 53.15590597016169, 4, 21, 13.0, 0, 0, 410, 0
110, 5, 5, 52.60083078833779, 8, 28, 18.0, 0, 0, 633, 0
110, 5, 6, 52.95473446899799, 3, 28, 17.0, 0, 0, 654, 0
110, 5, 7, 52.639462350908644, 2, 32, 20.0, 0, 0, 846, 0
110, 5, 8, 52.57163830683673, 4, 36, 23.0, 0, 0, 978, 0
110, 5, 9, 52.38825328820594, 2, 32, 20.0, 0, 0, 1049, 0
110, 5, 10, 52.55929406478645, 1, 36, 20.0, 0, 0, 1123, 0
110, 5, 11, 52.39357381323663, 1, 36, 21.0, 0, 0, 1184, 0
110, 6, 3, 48.961461799407935, 3, 23, 13.0, 0, 0, 333, 0
110, 6, 4, 49.29761413670989, 0, 28, 16.0, 1, 6, 602, 6
110, 6, 5, 47.763086574871615, 3, 32, 21.0, 0, 0, 841, 0
110, 6, 6, 48.810295065334394, 3, 31, 19.0, 0, 0, 812, 0
110, 6, 7, 48.327206049750295, 1, 33, 21.0, 0, 0, 1028, 0
110, 6, 8, 47.864545688377994, 0, 42, 24.0, 1, 7, 1234, 7
110, 6, 9, 47.54476609403588, 2, 37, 22.0, 0, 0, 1218, 0
110, 6, 10, 47.313939833670624, 0, 39, 22.0, 1, 16, 1451, 16
110, 6, 11, 47.35291450271899, 1, 43, 22.0, 0, 0, 1482, 0
110, 7, 3, 46.06381611633741, 1, 26, 13.0, 0, 0, 398, 0
110, 7, 4, 46.05659253756374, 2, 27, 18.0, 0, 0, 750, 0
110, 7, 5, 44.79744203249573, 0, 39, 23.0, 1, 34, 988, 34
110, 7, 6, 45.46201688924232, 2, 37, 21.0, 0, 0, 1030, 0
110, 7, 7, 45.36952665212804, 1, 35, 23.0, 0, 0, 1190, 0
110, 7, 8, 45.11791670445395, 0, 35, 21.0, 1, 4, 1384, 4
110, 7, 9, 44.831811049161374, 1, 34, 20.0, 0, 0, 1354, 0
110, 7, 10, 44.317633231582306, 0, 49, 24.0, 1, 17, 1623, 17
110, 7, 11, 44.36204900295841, 0, 38, 20.0, 1, 22, 1709, 22
110, 8, 3, 45.252067596301146, 5, 25, 15.0, 0, 0, 543, 0
110, 8, 4, 42.650763246741356, 3, 35, 20.0, 0, 0, 756, 0
110, 8, 5, 43.19301742868729, 3, 40, 22.0, 0, 0, 1092, 0
110, 8, 6, 43.038714093664346, 1, 36, 23.0, 0, 0, 1194, 0
110, 8, 7, 42.95169175461711, 1, 42, 23.0, 0, 0, 1278, 0
110, 8, 8, 42.9873068271662, 0, 38, 22.0, 1, 8, 1518, 8
110, 8, 9, 42.8223644773105, 0, 39, 22.0, 1, 21, 1571, 21
110, 8, 10, 42.44268779230566, 0, 43, 22.0, 1, 17, 1722, 17
110, 8, 11, 42.09932383508424, 0, 38, 18.0, 1, 12, 1826, 12
110, 9, 3, 36.53312619019623, 7, 31, 15.0, 0, 0, 584, 0
110, 9, 4, 36.836736940893495, 1, 35, 21.0, 0, 0, 896, 0
110, 9, 5, 35.363200007543945, 2, 43, 27.0, 0, 0, 1254, 0
110, 9, 6, 36.01445963528417, 1, 38, 23.0, 0, 0, 1397, 0
110, 9, 7, 35.85289373480608, 1, 44, 25.0, 0, 0, 1505, 0
110, 9, 8, 35.54333319822296, 0, 41, 23.0, 1, 25, 1735, 25
110, 9, 9, 35.74107394160133, 1, 39, 20.0, 0, 0, 1755, 0
110, 9, 10, 35.2527497776129, 0, 38, 20.0, 1, 13, 1891, 13
110, 9, 11, 35.00309181325535, 0, 36, 17.0, 1, 85, 1935, 85
110, 10, 3, 31.87082158233198, 2, 34, 17.0, 0, 0, 691, 0
110, 10, 4, 31.983863638584626, 0, 44, 25.0, 1, 6, 1078, 6
110, 10, 5, 31.858253537754866, 2, 44, 25.0, 0, 0, 1360, 0
110, 10, 6, 31.655101576589797, 0, 50, 26.0, 1, 18, 1569, 18
110, 10, 7, 31.797860007863196, 1, 46, 27.0, 0, 0, 1640, 0
110, 10, 8, 31.65812754521726, 0, 42, 22.0, 1, 35, 1842, 35
110, 10, 9, 31.400678810932902, 0, 44, 21.0, 1, 20, 1908, 20
110, 10, 10, 31.186220534992614, 0, 43, 19.0, 1, 2, 2053, 2
110, 10, 11, 31.19593367589092, 0, 30, 14.0, 1, 45, 2043, 45
110, 11, 3, 29.583236041764938, 3, 33, 19.0, 0, 0, 751, 0
110, 11, 4, 28.84010034963099, 0, 46, 26.0, 1, 8, 1179, 8
110, 11, 5, 29.074046622328783, 1, 46, 26.0, 0, 0, 1520, 0
110, 11, 6, 29.068000667059938, 2, 47, 26.0, 0, 0, 1684, 0
110, 11, 7, 28.957782051899013, 0, 50, 25.0, 1, 20, 1793, 20
110, 11, 8, 28.83925975669176, 0, 35, 20.0, 1, 27, 1936, 27
110, 11, 9, 28.558330394558244, 0, 38, 20.0, 1, 21, 2070, 21
110, 11, 10, 28.628081134750403, 0, 41, 17.0, 1, 87, 2122, 87
110, 11, 11, 28.43220983977145, 0, 32, 13.0, 1, 85, 2150, 85
110, 12, 3, 27.713008176853943, 4, 33, 20.0, 0, 0, 875, 0
110, 12, 4, 27.573018697897933, 0, 42, 25.0, 1, 14, 1271, 14
110, 12, 5, 27.46166223197606, 0, 44, 26.0, 1, 30, 1664, 30
110, 12, 6, 27.768862865588538, 0, 43, 24.0, 1, 9, 1798, 9
110, 12, 7, 27.706442969209622, 0, 52, 23.0, 1, 23, 1965, 23
110, 12, 8, 27.505424274857333, 0, 37, 18.0, 1, 34, 2073, 34
110, 12, 9, 27.44083108262934, 0, 38, 18.0, 1, 60, 2120, 60
110, 12, 10, 27.364367149026705, 0, 38, 14.0, 1, 102, 2178, 102
110, 12, 11, 27.355816444295865, 0, 30, 10.0, 1, 103, 2180, 103
110, 13, 3, 34.607553504554886, 1, 32, 17.0, 0, 0, 922, 0
110, 13, 4, 35.2682116481409, 0, 38, 24.0, 1, 20, 1351, 20
110, 13, 5, 34.852163943735086, 0, 50, 27.0, 1, 18, 1757, 18
110, 13, 6, 34.85764721344619, 0, 47, 24.0, 1, 26, 1893, 26
110, 13, 7, 34.98178858636256, 0, 47, 22.0, 1, 5, 1988, 5
110, 13, 8, 34.80638078786045, 0, 27, 13.0, 1, 37, 2122, 37
110, 13, 9, 34.71398394038725, 0, 37, 18.0, 1, 95, 2122, 95
110, 13, 10, 34.69461999468181, 0, 35, 13.0, 1, 92, 2180, 92
110, 13, 11, 34.65008873484225, 0, 23, 9.0, 2, 100, 2211, 104
110, 14, 3, 52.55344044176403, 1, 39, 20.0, 0, 0, 972, 0
110, 14, 4, 53.17823642400172, 0, 44, 27.0, 1, 14, 1458, 14
110, 14, 5, 53.07889771960042, 0, 41, 20.0, 1, 6, 1726, 6
110, 14, 6, 53.03282681498453, 0, 43, 23.0, 1, 2, 1944, 2
110, 14, 7, 52.922636785573296, 0, 38, 19.0, 1, 50, 2008, 50
110, 14, 8, 52.924797894994164, 0, 26, 12.0, 1, 96, 2110, 96
110, 14, 9, 52.72373326141762, 0, 32, 15.0, 1, 115, 2159, 115
110, 14, 10, 52.64004466108512, 0, 23, 9.0, 1, 92, 2192, 92
110, 14, 11, 52.74663857422957, 0, 23, 8.0, 1, 101, 2200, 101
110, 15, 3, 30.716470322115818, 1, 36, 19.0, 0, 0, 1038, 0
110, 15, 4, 30.38976299226306, 0, 38, 22.0, 1, 30, 1507, 30
110, 15, 5, 30.33307774768586, 0, 42, 21.0, 1, 31, 1739, 31
110, 15, 6, 30.457183289409507, 0, 34, 17.0, 1, 97, 1859, 97
110, 15, 7, 30.337624372945875, 0, 40, 18.0, 1, 57, 2067, 57
110, 15, 8, 30.269119630301386, 0, 28, 9.0, 1, 95, 2104, 95
110, 15, 9, 30.351226689132496, 0, 32, 14.0, 1, 89, 2146, 89
110, 15, 10, 30.26473179321877, 0, 26, 9.0, 1, 132, 2173, 132
110, 15, 11, 30.25916597752571, 0, 19, 6.0, 1, 125, 2192, 125
110, 16, 3, 58.06415929986295, 1, 36, 22.0, 0, 0, 1119, 0
110, 16, 4, 58.55937061707297, 0, 35, 20.0, 1, 43, 1539, 43
110, 16, 5, 58.50373712334554, 0, 39, 19.0, 1, 34, 1890, 34
110, 16, 6, 58.538518473679126, 0, 36, 17.0, 1, 84, 1915, 84
110, 16, 7, 58.41902270614956, 0, 35, 15.0, 1, 91, 2046, 91
110, 16, 8, 58.4476636896469, 0, 21, 8.0, 1, 95, 2107, 95
110, 16, 9, 58.429718312990126, 0, 26, 10.0, 1, 101, 2106, 101
110, 16, 10, 58.47212511710339, 0, 22, 7.0, 2, 110, 2159, 111
110, 16, 11, 58.26870792463268, 0, 18, 5.0, 3, 95, 2169, 190
110, 17, 3, 39.80761740552947, 1, 35, 20.0, 0, 0, 1273, 0
110, 17, 4, 40.17937762239013, 0, 44, 23.0, 1, 40, 1637, 40
110, 17, 5, 40.40690533363756, 1, 33, 18.0, 0, 0, 1980, 0
110, 17, 6, 40.1715795835928, 0, 33, 16.0, 1, 85, 2030, 85
110, 17, 7, 40.33193396652147, 0, 33, 15.0, 1, 85, 2004, 85
110, 17, 8, 40.18830712320417, 0, 19, 7.0, 1, 69, 2135, 69
110, 17, 9, 40.18409596941084, 0, 25, 9.0, 1, 101, 2133, 101
110, 17, 10, 40.186954372858565, 0, 19, 5.0, 2, 133, 2195, 149
110, 17, 11, 40.19592120672791, 0, 11, 3.0, 5, 124, 2160, 301
120, 3, 3, 70.92959847116244, 2, 12, 7.0, 0, 0, 102, 0
120, 3, 4, 73.4922255484717, 5, 17, 9.0, 0, 0, 114, 0
120, 3, 5, 72.59969833145047, 3, 18, 9.0, 0, 0, 156, 0
120, 3, 6, 72.44657945607908, 6, 20, 12.0, 0, 0, 187, 0
120, 3, 7, 72.22737580101175, 5, 20, 12.0, 0, 0, 268, 0
120, 3, 8, 72.82302840137052, 3, 21, 13.0, 0, 0, 274, 0
120, 3, 9, 72.10828064260575, 3, 26, 13.0, 0, 0, 343, 0
120, 3, 10, 72.01711049995032, 6, 24, 14.0, 0, 0, 327, 0
120, 3, 11, 72.0894325650218, 6, 28, 17.0, 0, 0, 507, 0
120, 4, 3, 67.69194793968477, 3, 16, 9.0, 0, 0, 130, 0
120, 4, 4, 65.16296210298351, 6, 20, 13.0, 0, 0, 337, 0
120, 4, 5, 66.42900931673888, 3, 23, 12.0, 0, 0, 310, 0
120, 4, 6, 67.60174047646139, 2, 24, 14.0, 0, 0, 370, 0
120, 4, 7, 66.44424132653288, 3, 28, 18.0, 0, 0, 537, 0
120, 4, 8, 65.72537082168597, 4, 27, 17.0, 0, 0, 553, 0
120, 4, 9, 65.98734197775329, 1, 31, 18.0, 0, 0, 677, 0
120, 4, 10, 66.23117329011622, 5, 30, 18.0, 0, 0, 728, 0
120, 4, 11, 66.61689557721714, 1, 29, 17.0, 0, 0, 803, 0
120, 5, 3, 60.70762166939878, 6, 17, 10.0, 0, 0, 222, 0
120, 5, 4, 58.65379476563422, 6, 24, 15.0, 0, 0, 383, 0
120, 5, 5, 58.90840931171678, 6, 37, 21.0, 0, 0, 635, 0
120, 5, 6, 59.272346199274125, 3, 34, 20.0, 0, 0, 625, 0
120, 5, 7, 58.590949895645885, 2, 37, 22.0, 0, 0, 782, 0
120, 5, 8, 58.612542047180604, 4, 36, 20.0, 0, 0, 878, 0
120, 5, 9, 58.539502356555445, 1, 41, 23.0, 0, 0, 966, 0
120, 5, 10, 58.483014594353584, 1, 40, 23.0, 0, 0, 1107, 0
120, 5, 11, 58.43004901616192, 2, 46, 24.0, 0, 0, 1138, 0
120, 6, 3, 54.05517817270379, 2, 22, 12.0, 0, 0, 287, 0
120, 6, 4, 53.29189832434221, 3, 29, 15.0, 0, 0, 500, 0
120, 6, 5, 52.55437020580381, 3, 37, 24.0, 0, 0, 820, 0
120, 6, 6, 53.078509171975746, 3, 39, 23.0, 0, 0, 797, 0
120, 6, 7, 53.20451718596653, 1, 41, 26.0, 0, 0, 1020, 0
120, 6, 8, 52.55009885711764, 1, 35, 23.0, 0, 0, 1173, 0
120, 6, 9, 52.490957607784146, 1, 47, 28.0, 0, 0, 1285, 0
120, 6, 10, 52.26094778226829, 1, 44, 25.0, 0, 0, 1456, 0
120, 6, 11, 52.55310484383144, 1, 35, 22.0, 0, 0, 1399, 0
120, 7, 3, 49.186885833493974, 5, 24, 14.0, 0, 0, 385, 0
120, 7, 4, 50.37480020184652, 1, 36, 20.0, 0, 0, 657, 0
120, 7, 5, 49.12387358311951, 2, 35, 23.0, 0, 0, 994, 0
120, 7, 6, 49.38838168722272, 3, 37, 22.0, 0, 0, 980, 0
120, 7, 7, 49.56689214878894, 1, 37, 22.0, 0, 0, 1104, 0
120, 7, 8, 48.732556636072445, 1, 41, 24.0, 0, 0, 1349, 0
120, 7, 9, 48.84122437463757, 0, 42, 23.0, 1, 25, 1384, 25
120, 7, 10, 48.22516616696098, 1, 40, 22.0, 0, 0, 1581, 0
120, 7, 11, 47.91317010962174, 1, 38, 22.0, 0, 0, 1659, 0
120, 8, 3, 45.555056384883876, 1, 22, 12.0, 0, 0, 494, 0
120, 8, 4, 44.50136223428423, 6, 38, 25.0, 0, 0, 787, 0
120, 8, 5, 43.931428489487885, 0, 37, 23.0, 1, 1, 1091, 1
120, 8, 6, 44.40823342503342, 1, 37, 24.0, 0, 0, 1190, 0
120, 8, 7, 44.23855244894486, 2, 45, 28.0, 0, 0, 1268, 0
120, 8, 8, 44.03720636934029, 0, 39, 24.0, 1, 23, 1478, 23
120, 8, 9, 44.18819709976467, 1, 37, 21.0, 0, 0, 1517, 0
120, 8, 10, 43.70849661282275, 0, 39, 21.0, 1, 55, 1693, 55
120, 8, 11, 43.40816206841523, 0, 43, 20.0, 1, 4, 1798, 4
120, 9, 3, 43.75877548980456, 6, 33, 19.0, 0, 0, 591, 0
120, 9, 4, 41.42384586599657, 2, 38, 23.0, 0, 0, 851, 0
120, 9, 5, 42.10252283413473, 4, 40, 24.0, 0, 0, 1221, 0
120, 9, 6, 41.52891777847431, 1, 43, 27.0, 0, 0, 1405, 0
120, 9, 7, 41.85298402586352, 1, 40, 26.0, 0, 0, 1416, 0
120, 9, 8, 41.65017641353606, 0, 36, 21.0, 1, 15, 1608, 15
120, 9, 9, 41.72257717460102, 0, 40, 23.0, 1, 15, 1715, 15
120, 9, 10, 41.3640779603473, 0, 38, 21.0, 1, 2, 1797, 2
120, 9, 11, 41.118513850461675, 0, 34, 18.0, 1, 39, 1908, 39
120, 10, 3, 36.61010814701074, 9, 37, 22.0, 0, 0, 641, 0
120, 10, 4, 38.10214417040734, 2, 39, 25.0, 0, 0, 1014, 0
120, 10, 5, 36.39160986225933, 2, 43, 28.0, 0, 0, 1373, 0
120, 10, 6, 37.191112315509635, 1, 49, 25.0, 0, 0, 1510, 0
120, 10, 7, 37.1187398455799, 2, 46, 25.0, 0, 0, 1603, 0
120, 10, 8, 36.53645881504078, 0, 36, 21.0, 1, 23, 1840, 23
120, 10, 9, 36.523248806963664, 0, 44, 22.0, 1, 50, 1865, 50
120, 10, 10, 36.42589656384845, 0, 33, 19.0, 1, 30, 1923, 30
120, 10, 11, 36.12944039296246, 0, 41, 18.0, 1, 33, 2010, 33
120, 11, 3, 51.640482600283924, 4, 34, 20.0, 0, 0, 787, 0
120, 11, 4, 51.42433851504101, 0, 41, 26.0, 1, 12, 1130, 12
120, 11, 5, 51.51113438725548, 1, 41, 25.0, 0, 0, 1478, 0
120, 11, 6, 51.28241717393588, 1, 44, 27.0, 0, 0, 1652, 0
120, 11, 7, 51.27691256938888, 1, 43, 26.0, 0, 0, 1760, 0
120, 11, 8, 51.29504260712047, 0, 39, 20.0, 1, 50, 1936, 50
120, 11, 9, 51.12361248707728, 0, 42, 21.0, 1, 79, 2008, 79
120, 11, 10, 50.96496277551937, 0, 31, 16.0, 1, 68, 2067, 68
120, 11, 11, 51.08951545155668, 0, 34, 16.0, 1, 63, 2056, 63
120, 12, 3, 31.38689425950296, 4, 33, 20.0, 0, 0, 800, 0
120, 12, 4, 30.755214732923346, 1, 40, 27.0, 0, 0, 1241, 0
120, 12, 5, 31.154418687011045, 1, 45, 26.0, 0, 0, 1593, 0
120, 12, 6, 30.97700022416714, 0, 44, 26.0, 1, 1, 1789, 1
120, 12, 7, 30.947933235643827, 0, 45, 25.0, 1, 8, 1912, 8
120, 12, 8, 30.83187126518455, 0, 38, 19.0, 1, 38, 2022, 38
120, 12, 9, 30.655944791095756, 0, 33, 18.0, 1, 60, 2100, 60
120, 12, 10, 30.705004633105933, 0, 32, 14.0, 1, 40, 2119, 40
120, 12, 11, 30.56649170313441, 0, 25, 11.0, 1, 92, 2157, 92
120, 13, 3, 31.535404070767278, 5, 41, 23.0, 0, 0, 930, 0
120, 13, 4, 31.276082289105116, 0, 43, 27.0, 1, 9, 1366, 9
120, 13, 5, 31.21258295896875, 1, 49, 26.0, 0, 0, 1706, 0
120, 13, 6, 31.45748620395106, 0, 43, 25.0, 1, 17, 1889, 17
120, 13, 7, 31.33780004003416, 0, 42, 23.0, 1, 1, 1996, 1
120, 13, 8, 31.14201525785745, 0, 32, 15.0, 1, 87, 2099, 87
120, 13, 9, 31.178176677976808, 0, 32, 17.0, 1, 28, 2141, 28
120, 13, 10, 31.095096159796018, 0, 28, 12.0, 1, 93, 2189, 93
120, 13, 11, 31.051843004719917, 0, 21, 9.0, 1, 86, 2198, 86
120, 14, 3, 44.712077413873516, 1, 35, 20.0, 0, 0, 963, 0
120, 14, 4, 44.80458227880633, 0, 47, 27.0, 1, 7, 1446, 7
120, 14, 5, 44.30610827625567, 0, 44, 25.0, 1, 6, 1784, 6
120, 14, 6, 44.53568280326637, 0, 37, 22.0, 1, 26, 1864, 26
120, 14, 7, 44.551505850073546, 0, 42, 21.0, 1, 76, 1978, 76
120, 14, 8, 44.196282930783134, 0, 29, 13.0, 1, 19, 2157, 19
120, 14, 9, 44.281930535787694, 0, 36, 15.0, 1, 86, 2143, 86
120, 14, 10, 44.22341795084855, 0, 24, 11.0, 1, 103, 2210, 103
120, 14, 11, 44.15440722483464, 0, 19, 7.0, 1, 84, 2212, 84
120, 15, 3, 24.184038972585448, 2, 42, 24.0, 0, 0, 1009, 0
120, 15, 4, 24.283572003685652, 0, 51, 28.0, 1, 15, 1519, 15
120, 15, 5, 24.35707990589842, 0, 44, 23.0, 1, 37, 1771, 37
120, 15, 6, 24.502677248132905, 0, 39, 21.0, 1, 52, 1955, 52
120, 15, 7, 24.586331032679286, 0, 41, 18.0, 1, 9, 2031, 9
120, 15, 8, 24.718494221956007, 0, 27, 11.0, 1, 93, 2169, 93
120, 15, 9, 24.707271131032716, 0, 37, 14.0, 1, 81, 2189, 81
120, 15, 10, 24.701745821627718, 0, 26, 9.0, 2, 164, 2183, 165
120, 15, 11, 24.722973606126185, 0, 15, 6.0, 2, 86, 2191, 101
120, 16, 3, 44.61537510693402, 0, 40, 25.0, 1, 37, 1047, 37
120, 16, 4, 44.26172233335991, 0, 44, 25.0, 1, 14, 1551, 14
120, 16, 5, 44.25795903846718, 0, 40, 19.0, 1, 2, 1798, 2
120, 16, 6, 44.13493303545879, 0, 42, 20.0, 1, 85, 1923, 85
120, 16, 7, 43.760741653858055, 0, 34, 16.0, 1, 78, 2071, 78
120, 16, 8, 43.867269500643594, 0, 19, 8.0, 1, 107, 2103, 107
120, 16, 9, 43.840852162307655, 0, 29, 11.0, 1, 94, 2149, 94
120, 16, 10, 43.85840417721559, 0, 20, 6.0, 2, 144, 2159, 231
120, 16, 11, 43.820737846550564, 0, 15, 4.0, 5, 133, 2170, 232
120, 17, 3, 21.747872032118796, 0, 38, 18.0, 1, 34, 1138, 34
120, 17, 4, 22.186510435356986, 0, 43, 24.0, 1, 51, 1556, 51
120, 17, 5, 22.29195774349796, 0, 41, 22.0, 1, 93, 1934, 93
120, 17, 6, 22.210503865599446, 0, 30, 16.0, 1, 64, 1882, 64
120, 17, 7, 22.278618482823916, 0, 32, 14.0, 1, 69, 2060, 69
120, 17, 8, 22.376861051494394, 0, 17, 7.0, 1, 80, 2121, 80
120, 17, 9, 22.301213722753122, 0, 25, 8.0, 2, 96, 2089, 110
120, 17, 10, 22.392597854139847, 0, 21, 6.0, 2, 164, 2138, 229
120, 17, 11, 22.413009703909296, 0, 12, 4.0, 3, 120, 2161, 296
130, 3, 3, 77.9875128525323, 2, 12, 6.0, 0, 0, 86, 0
130, 3, 4, 77.00429980058462, 4, 16, 9.0, 0, 0, 92, 0
130, 3, 5, 77.85412372931049, 5, 14, 8.0, 0, 0, 130, 0
130, 3, 6, 77.30196417705967, 6, 19, 11.0, 0, 0, 166, 0
130, 3, 7, 77.71654860536371, 7, 22, 13.0, 0, 0, 261, 0
130, 3, 8, 77.5991682013065, 5, 18, 12.0, 0, 0, 202, 0
130, 3, 9, 77.55927916463648, 7, 24, 13.0, 0, 0, 324, 0
130, 3, 10, 77.49616616514635, 8, 22, 14.0, 0, 0, 303, 0
130, 3, 11, 77.30342350593446, 8, 26, 15.0, 0, 0, 407, 0
130, 4, 3, 71.08390147159596, 5, 13, 8.0, 0, 0, 142, 0
130, 4, 4, 68.77459101079405, 7, 19, 11.0, 0, 0, 292, 0
130, 4, 5, 70.73834090699476, 3, 18, 10.0, 0, 0, 259, 0
130, 4, 6, 70.793062823861, 5, 25, 15.0, 0, 0, 382, 0
130, 4, 7, 70.6166448919275, 6, 30, 19.0, 0, 0, 563, 0
130, 4, 8, 69.23778071606509, 6, 25, 15.0, 0, 0, 493, 0
130, 4, 9, 70.52060136569371, 4, 31, 18.0, 0, 0, 656, 0
130, 4, 10, 70.49022141320606, 3, 27, 18.0, 0, 0, 604, 0
130, 4, 11, 70.7620111538362, 4, 37, 20.0, 0, 0, 776, 0
130, 5, 3, 67.77088066211427, 2, 16, 8.0, 0, 0, 169, 0
130, 5, 4, 65.13598951466219, 8, 26, 15.0, 0, 0, 410, 0
130, 5, 5, 64.9694045963091, 5, 32, 20.0, 0, 0, 652, 0
130, 5, 6, 66.22094051916366, 3, 31, 18.0, 0, 0, 514, 0
130, 5, 7, 65.67885123920396, 2, 33, 21.0, 0, 0, 720, 0
130, 5, 8, 65.61443239960596, 4, 35, 21.0, 0, 0, 807, 0
130, 5, 9, 65.04295779820647, 2, 40, 24.0, 0, 0, 914, 0
130, 5, 10, 65.15700447487528, 6, 41, 24.0, 0, 0, 1137, 0
130, 5, 11, 65.08854533716583, 2, 41, 25.0, 0, 0, 1110, 0
130, 6, 3, 63.13157569864588, 5, 21, 11.0, 0, 0, 275, 0
130, 6, 4, 60.43856181573927, 3, 28, 15.0, 0, 0, 438, 0
130, 6, 5, 59.55966963380557, 5, 44, 25.0, 0, 0, 805, 0
130, 6, 6, 60.524224964434204, 4, 33, 20.0, 0, 0, 744, 0
130, 6, 7, 60.06830348466417, 2, 40, 24.0, 0, 0, 969, 0
130, 6, 8, 59.971794160558176, 5, 42, 28.0, 0, 0, 1107, 0
130, 6, 9, 60.16208584032221, 2, 41, 25.0, 0, 0, 1209, 0
130, 6, 10, 59.600155045180976, 1, 44, 26.0, 0, 0, 1347, 0
130, 6, 11, 59.9579014194143, 2, 44, 26.0, 0, 0, 1385, 0
130, 7, 3, 57.23646445418537, 7, 29, 16.0, 0, 0, 358, 0
130, 7, 4, 57.936919103852, 1, 27, 17.0, 0, 0, 625, 0
130, 7, 5, 56.13751430577932, 2, 40, 26.0, 0, 0, 965, 0
130, 7, 6, 56.69756438101021, 4, 42, 25.0, 0, 0, 927, 0
130, 7, 7, 57.16483274446386, 1, 38, 23.0, 0, 0, 1047, 0
130, 7, 8, 56.3720741414483, 1, 37, 22.0, 0, 0, 1312, 0
130, 7, 9, 56.17820023436091, 1, 41, 25.0, 0, 0, 1327, 0
130, 7, 10, 55.82918080819018, 2, 44, 24.0, 0, 0, 1539, 0
130, 7, 11, 55.43499849556655, 2, 44, 23.0, 0, 0, 1582, 0
130, 8, 3, 51.795615763066685, 3, 28, 17.0, 0, 0, 458, 0
130, 8, 4, 52.36389926032786, 6, 32, 21.0, 0, 0, 703, 0
130, 8, 5, 50.80520196731234, 1, 45, 24.0, 0, 0, 1118, 0
130, 8, 6, 50.89143708439499, 2, 41, 25.0, 0, 0, 1129, 0
130, 8, 7, 51.21087584072758, 1, 46, 28.0, 0, 0, 1195, 0
130, 8, 8, 50.727143581313115, 0, 39, 22.0, 1, 6, 1429, 6
130, 8, 9, 50.84892318717435, 1, 35, 22.0, 0, 0, 1450, 0
130, 8, 10, 50.110177081744226, 1, 45, 25.0, 0, 0, 1672, 0
130, 8, 11, 49.797754085961564, 1, 40, 23.0, 0, 0, 1767, 0
130, 9, 3, 50.42956212841224, 6, 27, 17.0, 0, 0, 561, 0
130, 9, 4, 48.383153252411674, 3, 37, 24.0, 0, 0, 876, 0
130, 9, 5, 48.8403497743524, 2, 38, 24.0, 0, 0, 1172, 0
130, 9, 6, 48.15167070610719, 1, 45, 28.0, 0, 0, 1384, 0
130, 9, 7, 48.2479351157248, 1, 43, 29.0, 0, 0, 1434, 0
130, 9, 8, 48.16087704577167, 0, 42, 21.0, 1, 30, 1624, 30
130, 9, 9, 48.04026672202316, 0, 42, 24.0, 1, 8, 1607, 8
130, 9, 10, 47.998701683555936, 0, 39, 18.0, 1, 35, 1717, 35
130, 9, 11, 47.16015098443259, 0, 40, 21.0, 1, 50, 1893, 50
130, 10, 3, 43.67340160120469, 11, 36, 22.0, 0, 0, 664, 0
130, 10, 4, 42.34467227717527, 2, 40, 26.0, 0, 0, 969, 0
130, 10, 5, 41.99462809663178, 2, 46, 28.0, 0, 0, 1351, 0
130, 10, 6, 42.33389608548914, 0, 41, 25.0, 1, 11, 1514, 11
130, 10, 7, 42.20331399204852, 1, 49, 29.0, 0, 0, 1545, 0
130, 10, 8, 42.01551665449257, 0, 44, 21.0, 1, 86, 1760, 86
130, 10, 9, 41.92957093173871, 0, 40, 23.0, 1, 43, 1750, 43
130, 10, 10, 41.626939149759, 0, 34, 18.0, 1, 75, 1907, 75
130, 10, 11, 41.561666567990706, 0, 34, 18.0, 1, 40, 1926, 40
130, 11, 3, 53.452848104943826, 7, 41, 22.0, 0, 0, 708, 0
130, 11, 4, 53.64836735727671, 2, 40, 25.0, 0, 0, 1093, 0
130, 11, 5, 53.151796034050776, 2, 48, 30.0, 0, 0, 1494, 0
130, 11, 6, 53.070898322524826, 1, 46, 26.0, 0, 0, 1610, 0
130, 11, 7, 53.13966145624834, 3, 46, 28.0, 0, 0, 1706, 0
130, 11, 8, 52.73772836565492, 0, 38, 19.0, 1, 31, 1900, 31
130, 11, 9, 52.74937217143788, 0, 49, 24.0, 1, 12, 1934, 12
130, 11, 10, 52.848684861068485, 0, 29, 15.0, 1, 89, 1947, 89
130, 11, 11, 52.57415499521094, 0, 32, 16.0, 1, 22, 2045, 22
130, 12, 3, 56.118595563232546, 2, 36, 22.0, 0, 0, 827, 0
130, 12, 4, 55.38712509406144, 1, 46, 30.0, 0, 0, 1258, 0
130, 12, 5, 55.624284441172996, 0, 47, 29.0, 1, 49, 1644, 49
130, 12, 6, 55.54777154819341, 0, 44, 26.0, 1, 20, 1696, 20
130, 12, 7, 55.161014565700796, 2, 45, 28.0, 0, 0, 1826, 0
130, 12, 8, 55.359679302291546, 0, 27, 14.0, 1, 31, 1999, 31
130, 12, 9, 55.05909782225334, 0, 40, 19.0, 1, 46, 2053, 46
130, 12, 10, 54.95899354249366, 0, 28, 13.0, 1, 76, 2128, 76
130, 12, 11, 54.995736961552765, 0, 34, 13.0, 1, 58, 2101, 58
130, 13, 3, 33.73381599166191, 4, 46, 25.0, 0, 0, 831, 0
130, 13, 4, 32.37338607335185, 2, 49, 30.0, 0, 0, 1300, 0
130, 13, 5, 33.42628951041175, 2, 47, 26.0, 0, 0, 1688, 0
130, 13, 6, 33.06469566052177, 0, 51, 28.0, 1, 15, 1819, 15
130, 13, 7, 33.24811616431093, 1, 47, 27.0, 0, 0, 1962, 0
130, 13, 8, 32.942330033313006, 0, 32, 15.0, 1, 41, 2067, 41
130, 13, 9, 32.89856887507514, 0, 35, 16.0, 1, 17, 2101, 17
130, 13, 10, 32.877346442240224, 0, 29, 10.0, 1, 123, 2144, 123
130, 13, 11, 32.69571565283637, 0, 25, 10.0, 2, 54, 2185, 55
130, 14, 3, 36.20653966573137, 4, 36, 24.0, 0, 0, 925, 0
130, 14, 4, 35.90471037772084, 1, 49, 30.0, 0, 0, 1457, 0
130, 14, 5, 35.803347458770865, 0, 47, 26.0, 1, 45, 1780, 45
130, 14, 6, 36.04665034404846, 2, 45, 25.0, 0, 0, 1891, 0
130, 14, 7, 35.88225308859539, 1, 46, 24.0, 0, 0, 2025, 0
130, 14, 8, 35.735828522141105, 0, 25, 12.0, 1, 83, 2142, 83
130, 14, 9, 35.715273183896926, 0, 35, 16.0, 1, 57, 2180, 57
130, 14, 10, 35.63516222856296, 0, 26, 9.0, 2, 59, 2190, 68
130, 14, 11, 35.65811237039984, 0, 16, 6.0, 2, 86, 2178, 163
130, 15, 3, 55.774385137836944, 2, 44, 27.0, 0, 0, 978, 0
130, 15, 4, 55.49264315230073, 2, 48, 30.0, 0, 0, 1503, 0
130, 15, 5, 54.81024174405487, 0, 45, 24.0, 1, 56, 1844, 56
130, 15, 6, 55.16719231855549, 0, 46, 23.0, 1, 39, 1893, 39
130, 15, 7, 54.92530537448512, 1, 40, 20.0, 0, 0, 2048, 0
130, 15, 8, 54.80285331476495, 1, 23, 9.0, 0, 0, 2131, 0
130, 15, 9, 54.69842304100614, 0, 33, 13.0, 1, 78, 2185, 78
130, 15, 10, 54.67047512299752, 0, 22, 7.0, 1, 132, 2185, 132
130, 15, 11, 54.71235719059857, 0, 21, 6.0, 1, 65, 2185, 65
130, 16, 3, 28.313514807092677, 2, 45, 26.0, 0, 0, 1049, 0
130, 16, 4, 28.161277850101342, 0, 48, 26.0, 1, 36, 1476, 36
130, 16, 5, 28.613076692977295, 0, 41, 21.0, 1, 14, 1878, 14
130, 16, 6, 28.37022452181755, 0, 41, 21.0, 1, 65, 1934, 65
130, 16, 7, 28.504630598341027, 1, 36, 18.0, 0, 0, 1997, 0
130, 16, 8, 28.582424626939197, 0, 17, 8.0, 1, 89, 2154, 89
130, 16, 9, 28.561164810936543, 0, 25, 11.0, 1, 82, 2138, 82
130, 16, 10, 28.585996660387764, 0, 15, 5.0, 1, 109, 2170, 109
130, 16, 11, 28.59575881437099, 0, 18, 4.0, 4, 93, 2175, 204
130, 17, 3, 58.81088562907454, 1, 46, 27.0, 0, 0, 1069, 0
130, 17, 4, 58.67171521304754, 0, 47, 27.0, 1, 38, 1577, 38
130, 17, 5, 59.049520143407406, 0, 33, 17.0, 1, 51, 1806, 51
130, 17, 6, 58.57747442854815, 0, 43, 20.0, 1, 66, 1975, 66
130, 17, 7, 58.29517271998242, 0, 38, 16.0, 1, 47, 2075, 47
130, 17, 8, 58.324134984678906, 0, 24, 7.0, 1, 119, 2099, 119
130, 17, 9, 58.299002092221436, 0, 24, 10.0, 1, 92, 2146, 92
130, 17, 10, 58.33105203605755, 0, 15, 5.0, 1, 98, 2154, 98
130, 17, 11, 58.34048058636957, 0, 14, 4.0, 3, 156, 2149, 242
140, 3, 3, 83.55843570337252, 3, 10, 5.0, 0, 0, 93, 0
140, 3, 4, 81.67778168795839, 5, 15, 9.0, 0, 0, 87, 0
140, 3, 5, 84.02340169087097, 5, 13, 8.0, 0, 0, 111, 0
140, 3, 6, 82.76978725666415, 8, 19, 11.0, 0, 0, 160, 0
140, 3, 7, 82.53734973834645, 5, 18, 9.0, 0, 0, 192, 0
140, 3, 8, 82.76611866811766, 6, 18, 10.0, 0, 0, 170, 0
140, 3, 9, 82.98172703331895, 7, 18, 12.0, 0, 0, 281, 0
140, 3, 10, 82.77065437544353, 8, 20, 12.0, 0, 0, 234, 0
140, 3, 11, 82.64466088841588, 7, 18, 11.0, 0, 0, 341, 0
140, 4, 3, 75.82107779580934, 4, 13, 8.0, 0, 0, 104, 0
140, 4, 4, 74.16849929291179, 7, 22, 13.0, 0, 0, 267, 0
140, 4, 5, 75.05354618599272, 7, 19, 11.0, 0, 0, 213, 0
140, 4, 6, 76.15274063542347, 6, 24, 15.0, 0, 0, 325, 0
140, 4, 7, 75.40135508231344, 5, 30, 19.0, 0, 0, 537, 0
140, 4, 8, 74.92107841976063, 8, 25, 17.0, 0, 0, 443, 0
140, 4, 9, 75.82165728820831, 7, 34, 21.0, 0, 0, 608, 0
140, 4, 10, 75.62034394761541, 6, 30, 18.0, 0, 0, 597, 0
140, 4, 11, 75.76883020434077, 8, 40, 25.0, 0, 0, 708, 0
140, 5, 3, 75.39324413903752, 5, 13, 9.0, 0, 0, 143, 0
140, 5, 4, 72.35512744059912, 4, 26, 16.0, 0, 0, 374, 0
140, 5, 5, 71.3218785858401, 4, 40, 22.0, 0, 0, 598, 0
140, 5, 6, 75.1441780860215, 4, 27, 17.0, 0, 0, 429, 0
140, 5, 7, 74.39773193324142, 3, 39, 24.0, 0, 0, 742, 0
140, 5, 8, 72.69761349752886, 5, 38, 22.0, 0, 0, 684, 0
140, 5, 9, 72.99261730986952, 3, 36, 24.0, 0, 0, 880, 0
140, 5, 10, 72.23248300800407, 3, 41, 24.0, 0, 0, 980, 0
140, 5, 11, 72.84339637751656, 3, 36, 23.0, 0, 0, 1015, 0
140, 6, 3, 69.65441081958208, 2, 19, 10.0, 0, 0, 229, 0
140, 6, 4, 66.63406214382073, 5, 27, 16.0, 0, 0, 419, 0
140, 6, 5, 65.82573285087277, 7, 42, 27.0, 0, 0, 831, 0
140, 6, 6, 67.02486426997427, 1, 31, 17.0, 0, 0, 645, 0
140, 6, 7, 65.88261181041219, 4, 45, 27.0, 0, 0, 946, 0
140, 6, 8, 66.15747711425972, 1, 40, 25.0, 0, 0, 983, 0
140, 6, 9, 65.95120477459088, 2, 46, 30.0, 0, 0, 1071, 0
140, 6, 10, 65.88686437135873, 0, 41, 24.0, 1, 29, 1251, 29
140, 6, 11, 65.84274712732811, 2, 45, 27.0, 0, 0, 1338, 0
140, 7, 3, 62.51986321677508, 9, 27, 16.0, 0, 0, 337, 0
140, 7, 4, 60.891664111243976, 3, 33, 21.0, 0, 0, 591, 0
140, 7, 5, 59.714468221314924, 4, 43, 27.0, 0, 0, 969, 0
140, 7, 6, 60.885588471963956, 3, 51, 27.0, 0, 0, 984, 0
140, 7, 7, 60.97347350721298, 0, 42, 27.0, 1, 6, 985, 6
140, 7, 8, 60.10529108156192, 1, 42, 26.0, 0, 0, 1263, 0
140, 7, 9, 60.17198282382265, 1, 48, 28.0, 0, 0, 1305, 0
140, 7, 10, 59.82337738829187, 0, 43, 26.0, 1, 68, 1576, 68
140, 7, 11, 59.70840550161609, 0, 47, 27.0, 1, 1, 1576, 1
140, 8, 3, 57.90787334840192, 10, 31, 18.0, 0, 0, 357, 0
140, 8, 4, 59.78038786691263, 4, 37, 21.0, 0, 0, 775, 0
140, 8, 5, 58.471144440917676, 1, 42, 25.0, 0, 0, 1109, 0
140, 8, 6, 57.623309510834886, 4, 45, 26.0, 0, 0, 1119, 0
140, 8, 7, 58.991314001540275, 0, 41, 27.0, 1, 14, 1161, 14
140, 8, 8, 58.00670216340572, 0, 43, 23.0, 1, 19, 1438, 19
140, 8, 9, 57.96768448945358, 2, 43, 26.0, 0, 0, 1386, 0
140, 8, 10, 57.48692060656992, 1, 47, 23.0, 0, 0, 1676, 0
140, 8, 11, 57.28457678290112, 2, 41, 24.0, 0, 0, 1677, 0
140, 9, 3, 56.57952234641003, 3, 35, 18.0, 0, 0, 488, 0
140, 9, 4, 56.73932020320926, 7, 41, 26.0, 0, 0, 920, 0
140, 9, 5, 54.991618881971185, 1, 37, 24.0, 0, 0, 1135, 0
140, 9, 6, 55.09615452624529, 4, 50, 30.0, 0, 0, 1329, 0
140, 9, 7, 55.16328717660412, 1, 52, 30.0, 0, 0, 1342, 0
140, 9, 8, 54.97866513108232, 1, 40, 21.0, 0, 0, 1553, 0
140, 9, 9, 55.4034220507662, 1, 45, 25.0, 0, 0, 1562, 0
140, 9, 10, 54.44755116040259, 0, 42, 20.0, 1, 55, 1719, 55
140, 9, 11, 54.07739799275439, 0, 44, 22.0, 1, 23, 1864, 23
140, 10, 3, 50.41568683240506, 8, 34, 22.0, 0, 0, 519, 0
140, 10, 4, 46.48198603022843, 8, 47, 29.0, 0, 0, 988, 0
140, 10, 5, 48.91272906764436, 2, 48, 27.0, 0, 0, 1293, 0
140, 10, 6, 47.24120529476741, 4, 56, 33.0, 0, 0, 1419, 0
140, 10, 7, 48.13748236724905, 1, 54, 30.0, 0, 0, 1581, 0
140, 10, 8, 47.40342331256969, 0, 43, 21.0, 1, 36, 1789, 36
140, 10, 9, 47.69319655356586, 0, 43, 26.0, 1, 5, 1669, 5
140, 10, 10, 47.34923640612409, 0, 33, 19.0, 1, 20, 1844, 20
140, 10, 11, 47.167998258201116, 0, 38, 16.0, 1, 56, 1897, 56
140, 11, 3, 58.15378930402782, 14, 40, 25.0, 0, 0, 647, 0
140, 11, 4, 55.946280916325364, 4, 49, 30.0, 0, 0, 1119, 0
140, 11, 5, 55.24984061503257, 1, 50, 29.0, 0, 0, 1398, 0
140, 11, 6, 56.12822426858731, 4, 46, 28.0, 0, 0, 1575, 0
140, 11, 7, 55.04666648234398, 2, 47, 29.0, 0, 0, 1638, 0
140, 11, 8, 55.233866913195584, 0, 37, 20.0, 1, 47, 1884, 47
140, 11, 9, 54.91678056633974, 2, 45, 26.0, 0, 0, 1833, 0
140, 11, 10, 54.788738095133084, 0, 36, 17.0, 1, 84, 1958, 84
140, 11, 11, 54.833346175807534, 0, 30, 15.0, 1, 64, 1970, 64
140, 12, 3, 53.19268893195329, 5, 38, 22.0, 0, 0, 627, 0
140, 12, 4, 54.925660540800166, 6, 41, 27.0, 0, 0, 1156, 0
140, 12, 5, 54.24835014120293, 1, 45, 28.0, 0, 0, 1556, 0
140, 12, 6, 53.45639890292195, 1, 47, 30.0, 0, 0, 1731, 0
140, 12, 7, 54.15993577427018, 2, 49, 27.0, 0, 0, 1814, 0
140, 12, 8, 53.770538713763386, 0, 33, 16.0, 1, 49, 1946, 49
140, 12, 9, 53.41427479411975, 0, 44, 24.0, 1, 19, 1961, 19
140, 12, 10, 53.918910657544096, 0, 25, 12.0, 1, 49, 1993, 49
140, 12, 11, 53.26594822602408, 0, 33, 13.0, 2, 28, 2075, 33
140, 13, 3, 60.242282212063124, 6, 37, 23.0, 0, 0, 765, 0
140, 13, 4, 59.43305699681006, 2, 57, 34.0, 0, 0, 1301, 0
140, 13, 5, 59.7574376727449, 1, 52, 28.0, 0, 0, 1692, 0
140, 13, 6, 59.41801094080893, 1, 45, 29.0, 0, 0, 1784, 0
140, 13, 7, 59.18319937478334, 0, 45, 27.0, 1, 10, 1907, 10
140, 13, 8, 59.27156145355271, 0, 26, 13.0, 1, 75, 2033, 75
140, 13, 9, 58.947852918730185, 0, 37, 19.0, 1, 20, 2030, 20
140, 13, 10, 58.884035976474955, 0, 34, 11.0, 2, 52, 2107, 102
140, 13, 11, 58.9275812533289, 0, 28, 10.0, 1, 94, 2153, 94
140, 14, 3, 35.91535629341306, 3, 53, 29.0, 0, 0, 823, 0
140, 14, 4, 34.24667749662163, 2, 50, 31.0, 0, 0, 1379, 0
140, 14, 5, 35.715949644394954, 0, 51, 24.0, 1, 38, 1718, 38
140, 14, 6, 35.123776717163466, 0, 49, 28.0, 1, 5, 1874, 5
140, 14, 7, 35.41540137606551, 0, 47, 24.0, 1, 29, 1981, 29
140, 14, 8, 35.10651356810012, 0, 30, 13.0, 1, 50, 2110, 50
140, 14, 9, 35.10609702646656, 0, 35, 16.0, 1, 4, 2131, 4
140, 14, 10, 35.06147347443564, 0, 29, 8.0, 1, 138, 2144, 138
140, 14, 11, 34.939509586116316, 0, 28, 7.0, 2, 105, 2171, 156
140, 15, 3, 41.37443226069166, 4, 43, 28.0, 0, 0, 931, 0
140, 15, 4, 41.369303619127756, 2, 48, 32.0, 0, 0, 1532, 0
140, 15, 5, 41.27449929351816, 0, 49, 24.0, 1, 43, 1824, 43
140, 15, 6, 41.3853458483922, 0, 46, 26.0, 1, 33, 1919, 33
140, 15, 7, 41.178193309772, 0, 42, 20.0, 1, 12, 2051, 12
140, 15, 8, 41.12981608293383, 0, 27, 10.0, 1, 81, 2130, 81
140, 15, 9, 41.148272133096455, 0, 32, 14.0, 1, 99, 2159, 99
140, 15, 10, 41.06427615443652, 0, 17, 6.0, 3, 125, 2170, 268
140, 15, 11, 41.06548832662183, 0, 22, 6.0, 2, 101, 2177, 134
140, 16, 3, 66.14473580007872, 3, 50, 30.0, 0, 0, 977, 0
140, 16, 4, 66.6347136001225, 0, 49, 30.0, 1, 48, 1558, 48
140, 16, 5, 65.94613883103018, 0, 41, 24.0, 1, 37, 1910, 37
140, 16, 6, 66.16056477532656, 0, 45, 23.0, 1, 74, 1910, 74
140, 16, 7, 65.9679671194392, 0, 36, 18.0, 1, 17, 2094, 17
140, 16, 8, 65.66003586610657, 0, 26, 8.0, 1, 95, 2140, 95
140, 16, 9, 65.67701441985525, 0, 26, 11.0, 2, 80, 2173, 88
140, 16, 10, 65.68970279174145, 0, 14, 4.0, 2, 142, 2167, 278
140, 16, 11, 65.65926891119472, 0, 18, 4.0, 1, 353, 2169, 353
140, 17, 3, 35.99786556677003, 3, 43, 28.0, 0, 0, 1045, 0
140, 17, 4, 35.61090681265326, 1, 49, 28.0, 0, 0, 1501, 0
140, 17, 5, 35.875708689105856, 0, 41, 22.0, 1, 63, 1931, 63
140, 17, 6, 35.681115268199534, 0, 32, 19.0, 1, 43, 1917, 43
140, 17, 7, 35.725160014803485, 0, 42, 16.0, 1, 81, 1984, 81
140, 17, 8, 35.79442312126395, 0, 22, 7.0, 1, 87, 2133, 87
140, 17, 9, 35.72238861865713, 0, 26, 11.0, 1, 89, 2149, 89
140, 17, 10, 35.75646574586799, 0, 15, 4.0, 4, 162, 2145, 306
140, 17, 11, 35.74522768254571, 0, 14, 2.0, 4, 207, 2148, 529
150, 3, 3, 90.94965486067466, 3, 13, 6.0, 0, 0, 83, 0
150, 3, 4, 88.38909850166597, 4, 14, 8.0, 0, 0, 96, 0
150, 3, 5, 91.08262991074092, 3, 11, 6.0, 0, 0, 76, 0
150, 3, 6, 89.70125657405022, 8, 21, 13.0, 0, 0, 162, 0
150, 3, 7, 89.26095129989498, 5, 12, 7.0, 0, 0, 142, 0
150, 3, 8, 90.04316445610984, 6, 18, 10.0, 0, 0, 165, 0
150, 3, 9, 90.01591424516131, 8, 22, 13.0, 0, 0, 266, 0
150, 3, 10, 89.67678526490076, 7, 18, 12.0, 0, 0, 199, 0
150, 3, 11, 89.60919258999944, 7, 22, 15.0, 0, 0, 310, 0
150, 4, 3, 83.55094745789515, 4, 12, 8.0, 0, 0, 117, 0
150, 4, 4, 82.0628934508947, 8, 21, 14.0, 0, 0, 254, 0
150, 4, 5, 83.92631712772398, 7, 16, 10.0, 0, 0, 174, 0
150, 4, 6, 84.28088433844187, 6, 22, 15.0, 0, 0, 280, 0
150, 4, 7, 82.70615771689057, 11, 33, 20.0, 0, 0, 460, 0
150, 4, 8, 82.89959205174446, 9, 26, 17.0, 0, 0, 440, 0
150, 4, 9, 83.49934087802241, 7, 32, 21.0, 0, 0, 535, 0
150, 4, 10, 83.58465308906854, 8, 29, 18.0, 0, 0, 470, 0
150, 4, 11, 83.3880581065192, 5, 33, 22.0, 0, 0, 664, 0
150, 5, 3, 82.92594844517498, 5, 15, 8.0, 0, 0, 157, 0
150, 5, 4, 79.24608891598365, 9, 28, 18.0, 0, 0, 397, 0
150, 5, 5, 77.62151348770142, 5, 30, 19.0, 0, 0, 515, 0
150, 5, 6, 83.86412132644398, 3, 27, 17.0, 0, 0, 393, 0
150, 5, 7, 81.77251271002137, 3, 34, 21.0, 0, 0, 686, 0
150, 5, 8, 79.82813142837308, 8, 38, 24.0, 0, 0, 660, 0
150, 5, 9, 80.38278412968323, 2, 35, 22.0, 0, 0, 838, 0
150, 5, 10, 79.33989801452479, 4, 36, 22.0, 0, 0, 924, 0
150, 5, 11, 81.13541002468995, 2, 38, 22.0, 0, 0, 894, 0
150, 6, 3, 76.50310152015916, 3, 18, 9.0, 0, 0, 213, 0
150, 6, 4, 73.04615366654065, 7, 34, 18.0, 0, 0, 428, 0
150, 6, 5, 72.589788420925, 3, 40, 26.0, 0, 0, 835, 0
150, 6, 6, 73.81013292382842, 7, 45, 22.0, 0, 0, 641, 0
150, 6, 7, 72.86382815592549, 5, 49, 30.0, 0, 0, 900, 0
150, 6, 8, 73.11183466428778, 3, 34, 22.0, 0, 0, 823, 0
150, 6, 9, 72.83278579672071, 1, 49, 28.0, 0, 0, 1054, 0
150, 6, 10, 72.5151623836123, 1, 48, 26.0, 0, 0, 1240, 0
150, 6, 11, 72.59992625205496, 4, 44, 29.0, 0, 0, 1325, 0
150, 7, 3, 71.37181405469937, 8, 26, 14.0, 0, 0, 351, 0
150, 7, 4, 67.99603223475015, 6, 34, 21.0, 0, 0, 632, 0
150, 7, 5, 66.69032972512227, 4, 45, 26.0, 0, 0, 930, 0
150, 7, 6, 67.90291902684038, 3, 42, 26.0, 0, 0, 921, 0
150, 7, 7, 67.84030219723509, 2, 46, 28.0, 0, 0, 998, 0
150, 7, 8, 67.1649090045046, 2, 50, 29.0, 0, 0, 1292, 0
150, 7, 9, 67.37661832660201, 3, 47, 28.0, 0, 0, 1314, 0
150, 7, 10, 66.90097637819281, 1, 47, 26.0, 0, 0, 1515, 0
150, 7, 11, 67.21270001412337, 2, 46, 25.0, 0, 0, 1500, 0
150, 8, 3, 67.00062473993486, 11, 35, 20.0, 0, 0, 344, 0
150, 8, 4, 67.5880420358552, 5, 39, 24.0, 0, 0, 785, 0
150, 8, 5, 65.46895440766443, 1, 46, 29.0, 0, 0, 1081, 0
150, 8, 6, 65.807189248594, 6, 54, 31.0, 0, 0, 1196, 0
150, 8, 7, 66.87529522829968, 3, 46, 28.0, 0, 0, 1152, 0
150, 8, 8, 66.0041914601905, 1, 39, 23.0, 0, 0, 1451, 0
150, 8, 9, 65.73934193998905, 1, 48, 30.0, 0, 0, 1456, 0
150, 8, 10, 65.39206923537103, 0, 45, 23.0, 1, 16, 1657, 16
150, 8, 11, 65.11797391549659, 1, 47, 24.0, 0, 0, 1639, 0
150, 9, 3, 62.64880393551861, 6, 38, 24.0, 0, 0, 426, 0
150, 9, 4, 63.62997813625399, 3, 39, 25.0, 0, 0, 836, 0
150, 9, 5, 63.16602121133083, 0, 46, 24.0, 1, 11, 1173, 11
150, 9, 6, 61.46823637464772, 3, 49, 28.0, 0, 0, 1212, 0
150, 9, 7, 62.43108036333148, 1, 50, 29.0, 0, 0, 1366, 0
150, 9, 8, 62.287592824185836, 2, 44, 23.0, 0, 0, 1548, 0
150, 9, 9, 61.65788527910265, 0, 47, 25.0, 1, 1, 1488, 1
150, 9, 10, 61.6040764900502, 0, 36, 18.0, 1, 15, 1745, 15
150, 9, 11, 61.29035274248612, 0, 41, 21.0, 1, 5, 1802, 5
150, 10, 3, 55.612448638805986, 3, 30, 18.0, 0, 0, 421, 0
150, 10, 4, 52.33869264330404, 4, 53, 32.0, 0, 0, 947, 0
150, 10, 5, 54.12275649729671, 1, 42, 25.0, 0, 0, 1223, 0
150, 10, 6, 53.25406716547729, 3, 54, 33.0, 0, 0, 1446, 0
150, 10, 7, 53.62180999014679, 1, 50, 30.0, 0, 0, 1543, 0
150, 10, 8, 52.95148579082263, 1, 43, 21.0, 0, 0, 1756, 0
150, 10, 9, 53.303787262035364, 0, 46, 25.0, 1, 42, 1707, 42
150, 10, 10, 52.984371701187285, 0, 31, 15.0, 1, 45, 1815, 45
150, 10, 11, 52.453260259857785, 0, 47, 20.0, 1, 13, 1947, 13
150, 11, 3, 62.46785333360745, 13, 36, 21.0, 0, 0, 617, 0
150, 11, 4, 56.83068543924651, 6, 50, 33.0, 0, 0, 1104, 0
150, 11, 5, 58.14142771852418, 0, 56, 28.0, 1, 26, 1444, 26
150, 11, 6, 57.90733377798171, 3, 52, 32.0, 0, 0, 1582, 0
150, 11, 7, 57.63803099606578, 0, 56, 29.0, 1, 22, 1691, 22
150, 11, 8, 57.62116869776787, 1, 33, 19.0, 0, 0, 1840, 0
150, 11, 9, 57.89527234209055, 1, 51, 26.0, 0, 0, 1810, 0
150, 11, 10, 57.238296212309066, 0, 35, 14.0, 1, 17, 1982, 17
150, 11, 11, 57.34901248549821, 0, 41, 16.0, 1, 72, 1969, 72
150, 12, 3, 55.65698095624587, 13, 38, 26.0, 0, 0, 609, 0
150, 12, 4, 55.21574636962417, 3, 45, 28.0, 0, 0, 1148, 0
150, 12, 5, 53.17681493978353, 0, 45, 27.0, 1, 1, 1503, 1
150, 12, 6, 54.77086141574217, 5, 41, 26.0, 0, 0, 1609, 0
150, 12, 7, 52.88676217323927, 0, 52, 28.0, 1, 23, 1802, 23
150, 12, 8, 53.13687225793974, 0, 27, 14.0, 1, 3, 1902, 3
150, 12, 9, 53.29107875488799, 0, 45, 23.0, 1, 65, 1935, 65
150, 12, 10, 52.939452835803884, 0, 38, 14.0, 1, 61, 1966, 61
150, 12, 11, 53.132898790429884, 0, 28, 11.0, 2, 48, 2011, 71
150, 13, 3, 52.96641616098311, 5, 40, 24.0, 0, 0, 702, 0
150, 13, 4, 54.66719502546802, 4, 54, 32.0, 0, 0, 1220, 0
150, 13, 5, 54.87141386680391, 1, 55, 28.0, 0, 0, 1694, 0
150, 13, 6, 53.86591099419169, 1, 53, 29.0, 0, 0, 1710, 0
150, 13, 7, 54.34495767757276, 1, 48, 25.0, 0, 0, 1900, 0
150, 13, 8, 53.82886245436977, 0, 34, 13.0, 1, 44, 2026, 44
150, 13, 9, 53.88927163048249, 0, 50, 20.0, 1, 62, 2015, 62
150, 13, 10, 53.91655759453784, 0, 33, 12.0, 1, 97, 2073, 97
150, 13, 11, 53.69710917332471, 0, 30, 9.0, 2, 80, 2095, 131
150, 14, 3, 64.73043320222217, 4, 39, 25.0, 0, 0, 848, 0
150, 14, 4, 63.42022596842537, 2, 49, 31.0, 0, 0, 1360, 0
150, 14, 5, 63.309663390427396, 1, 57, 28.0, 0, 0, 1708, 0
150, 14, 6, 63.43817897182918, 3, 50, 30.0, 0, 0, 1840, 0
150, 14, 7, 62.752897598004076, 0, 43, 23.0, 1, 10, 2013, 10
150, 14, 8, 63.02866959919283, 0, 26, 10.0, 1, 27, 2060, 27
150, 14, 9, 62.708890036300225, 0, 39, 17.0, 1, 60, 2041, 60
150, 14, 10, 62.76997601758399, 0, 31, 9.0, 1, 115, 2139, 115
150, 14, 11, 62.84766693278754, 0, 24, 7.0, 1, 101, 2139, 101
150, 15, 3, 37.59357656519814, 4, 52, 29.0, 0, 0, 840, 0
150, 15, 4, 36.26614989898163, 0, 52, 29.0, 1, 25, 1407, 25
150, 15, 5, 37.975944535756284, 0, 48, 24.0, 1, 12, 1740, 12
150, 15, 6, 37.127482309821104, 0, 46, 23.0, 1, 3, 1873, 3
150, 15, 7, 37.337687409032455, 0, 46, 22.0, 1, 24, 2090, 24
150, 15, 8, 37.30410870507716, 0, 32, 10.0, 1, 84, 2105, 84
150, 15, 9, 37.17701467572828, 0, 36, 14.0, 1, 51, 2144, 51
150, 15, 10, 37.286218677609355, 0, 27, 9.0, 1, 134, 2116, 134
150, 15, 11, 37.1593624013096, 0, 14, 4.0, 3, 125, 2160, 215
150, 16, 3, 47.55924401490343, 2, 50, 29.0, 0, 0, 959, 0
150, 16, 4, 47.535381730597265, 1, 57, 35.0, 0, 0, 1574, 0
150, 16, 5, 47.49640463936822, 0, 50, 21.0, 1, 42, 1830, 42
150, 16, 6, 47.540460751014955, 0, 40, 24.0, 1, 23, 1947, 23
150, 16, 7, 47.310634803740335, 0, 37, 16.0, 1, 92, 2090, 92
150, 16, 8, 47.27618906576051, 0, 21, 7.0, 1, 66, 2120, 66
150, 16, 9, 47.23458225796028, 0, 21, 10.0, 1, 93, 2144, 93
150, 16, 10, 47.23976423982666, 0, 23, 5.0, 2, 231, 2161, 238
150, 16, 11, 47.23414257198111, 0, 15, 4.0, 2, 363, 2170, 405
150, 17, 3, 77.36832907702042, 0, 51, 31.0, 1, 2, 1009, 2
150, 17, 4, 77.62543007366355, 0, 51, 29.0, 1, 22, 1601, 22
150, 17, 5, 77.23993873034769, 0, 48, 21.0, 1, 53, 1923, 53
150, 17, 6, 77.38509674552255, 0, 41, 21.0, 1, 21, 1950, 21
150, 17, 7, 76.97743564722856, 0, 35, 16.0, 1, 65, 2110, 65
150, 17, 8, 77.01990623838238, 0, 20, 5.0, 3, 116, 2102, 140
150, 17, 9, 76.82616600709798, 0, 29, 10.0, 2, 85, 2155, 93
150, 17, 10, 76.95900729517335, 0, 17, 3.0, 5, 152, 2154, 364
150, 17, 11, 76.96308377571731, 0, 7, 1.0, 6, 115, 2143, 498
160, 3, 3, 97.86686379291612, 1, 9, 3.0, 0, 0, 53, 0
160, 3, 4, 94.74350684652602, 4, 13, 7.0, 0, 0, 105, 0
160, 3, 5, 97.76206724840398, 5, 16, 7.0, 0, 0, 92, 0
160, 3, 6, 95.68662922097506, 7, 17, 10.0, 0, 0, 146, 0
160, 3, 7, 96.2621524156304, 5, 18, 8.0, 0, 0, 138, 0
160, 3, 8, 96.39243656513324, 8, 21, 13.0, 0, 0, 176, 0
160, 3, 9, 96.29012587302118, 10, 26, 14.0, 0, 0, 243, 0
160, 3, 10, 96.02621372287167, 10, 23, 14.0, 0, 0, 213, 0
160, 3, 11, 96.09981970267772, 10, 24, 14.0, 0, 0, 285, 0
160, 4, 3, 90.4405334653739, 5, 12, 8.0, 0, 0, 105, 0
160, 4, 4, 90.48559579617539, 9, 22, 13.0, 0, 0, 229, 0
160, 4, 5, 91.78753048306339, 7, 17, 11.0, 0, 0, 176, 0
160, 4, 6, 91.60263753279311, 6, 21, 13.0, 0, 0, 285, 0
160, 4, 7, 90.1628905744655, 10, 24, 15.0, 0, 0, 422, 0
160, 4, 8, 91.09631550022618, 13, 26, 16.0, 0, 0, 414, 0
160, 4, 9, 90.42736893416298, 10, 32, 19.0, 0, 0, 489, 0
160, 4, 10, 91.22697860091316, 6, 36, 22.0, 0, 0, 484, 0
160, 4, 11, 90.60131932280841, 9, 34, 21.0, 0, 0, 600, 0
160, 5, 3, 88.08625612699079, 6, 21, 11.0, 0, 0, 167, 0
160, 5, 4, 84.33768131723393, 6, 22, 13.0, 0, 0, 346, 0
160, 5, 5, 85.11462057388898, 5, 29, 18.0, 0, 0, 454, 0
160, 5, 6, 88.11219423354567, 3, 28, 16.0, 0, 0, 403, 0
160, 5, 7, 87.19211674525931, 6, 34, 19.0, 0, 0, 648, 0
160, 5, 8, 85.53813144429125, 6, 36, 22.0, 0, 0, 615, 0
160, 5, 9, 86.03577179033941, 6, 39, 24.0, 0, 0, 860, 0
160, 5, 10, 85.7688933308471, 5, 41, 26.0, 0, 0, 892, 0
160, 5, 11, 86.8247544646839, 5, 38, 26.0, 0, 0, 900, 0
160, 6, 3, 82.81151349106324, 3, 18, 9.0, 0, 0, 178, 0
160, 6, 4, 81.4736517594197, 3, 31, 19.0, 0, 0, 513, 0
160, 6, 5, 80.10963227159355, 6, 39, 24.0, 0, 0, 706, 0
160, 6, 6, 81.52079873628331, 6, 37, 24.0, 0, 0, 608, 0
160, 6, 7, 81.04465107194389, 2, 43, 25.0, 0, 0, 895, 0
160, 6, 8, 81.03067227868013, 2, 45, 24.0, 0, 0, 886, 0
160, 6, 9, 80.55274119535243, 2, 46, 28.0, 0, 0, 1023, 0
160, 6, 10, 80.50843332274094, 1, 53, 27.0, 0, 0, 1133, 0
160, 6, 11, 80.41370369937016, 3, 50, 27.0, 0, 0, 1266, 0
160, 7, 3, 78.58049598174097, 5, 27, 16.0, 0, 0, 298, 0
160, 7, 4, 76.21960349785614, 6, 34, 21.0, 0, 0, 648, 0
160, 7, 5, 75.82624133986953, 4, 43, 27.0, 0, 0, 928, 0
160, 7, 6, 76.13895183984694, 3, 37, 23.0, 0, 0, 871, 0
160, 7, 7, 75.74429194457527, 1, 50, 31.0, 0, 0, 1049, 0
160, 7, 8, 75.87849290446493, 3, 49, 28.0, 0, 0, 1219, 0
160, 7, 9, 75.65225606066524, 3, 46, 28.0, 0, 0, 1309, 0
160, 7, 10, 75.4486906803655, 1, 47, 24.0, 0, 0, 1488, 0
160, 7, 11, 75.29093119225233, 0, 48, 25.0, 1, 4, 1470, 4
160, 8, 3, 70.04929835558492, 10, 28, 17.0, 0, 0, 385, 0
160, 8, 4, 69.40093009774434, 9, 45, 27.0, 0, 0, 715, 0
160, 8, 5, 68.09249641459196, 7, 47, 31.0, 0, 0, 1090, 0
160, 8, 6, 68.91710869746608, 4, 51, 30.0, 0, 0, 1107, 0
160, 8, 7, 68.90712900554291, 0, 48, 29.0, 1, 9, 1145, 9
160, 8, 8, 68.51004673100796, 2, 47, 25.0, 0, 0, 1401, 0
160, 8, 9, 68.33938454827718, 0, 46, 27.0, 1, 1, 1498, 1
160, 8, 10, 67.96494413332002, 0, 40, 20.0, 1, 10, 1675, 10
160, 8, 11, 67.98579995899752, 1, 40, 23.0, 0, 0, 1653, 0
160, 9, 3, 71.01011793943222, 11, 30, 20.0, 0, 0, 384, 0
160, 9, 4, 71.65865066735819, 3, 47, 26.0, 0, 0, 841, 0
160, 9, 5, 69.70513869611419, 4, 44, 26.0, 0, 0, 1163, 0
160, 9, 6, 69.66919202641022, 1, 49, 28.0, 0, 0, 1198, 0
160, 9, 7, 69.97335213609628, 3, 44, 28.0, 0, 0, 1333, 0
160, 9, 8, 69.80256409184437, 1, 42, 22.0, 0, 0, 1461, 0
160, 9, 9, 69.73263687328604, 0, 55, 25.0, 1, 62, 1469, 62
160, 9, 10, 68.9744051710169, 1, 37, 19.0, 0, 0, 1717, 0
160, 9, 11, 68.91012154626303, 1, 42, 19.0, 0, 0, 1721, 0
160, 10, 3, 60.51778946829841, 5, 37, 22.0, 0, 0, 527, 0
160, 10, 4, 61.06582154021631, 4, 46, 28.0, 0, 0, 966, 0
160, 10, 5, 59.77351831026747, 4, 45, 26.0, 0, 0, 1233, 0
160, 10, 6, 60.12797912216634, 3, 47, 29.0, 0, 0, 1399, 0
160, 10, 7, 59.81016024249007, 2, 47, 27.0, 0, 0, 1465, 0
160, 10, 8, 59.73499512269242, 2, 40, 22.0, 0, 0, 1650, 0
160, 10, 9, 60.08644236317058, 0, 40, 23.0, 1, 21, 1662, 21
160, 10, 10, 59.24451137878395, 0, 38, 18.0, 1, 2, 1802, 2
160, 10, 11, 58.96958917194171, 0, 35, 17.0, 1, 74, 1878, 74
160, 11, 3, 63.56571598917778, 3, 36, 22.0, 0, 0, 582, 0
160, 11, 4, 61.618394059331365, 5, 44, 30.0, 0, 0, 1071, 0
160, 11, 5, 62.076663654380525, 0, 40, 24.0, 1, 5, 1366, 5
160, 11, 6, 61.613635227109484, 2, 53, 31.0, 0, 0, 1538, 0
160, 11, 7, 61.31541364563008, 0, 48, 25.0, 1, 20, 1693, 20
160, 11, 8, 61.13874085288677, 1, 34, 19.0, 0, 0, 1789, 0
160, 11, 9, 61.324454226580464, 0, 40, 23.0, 1, 47, 1771, 47
160, 11, 10, 61.05843053381403, 0, 26, 12.0, 1, 41, 1900, 41
160, 11, 11, 60.645153307833965, 0, 32, 14.0, 1, 83, 1965, 83
160, 12, 3, 60.758949246638885, 13, 34, 23.0, 0, 0, 706, 0
160, 12, 4, 55.0769349052745, 3, 52, 33.0, 0, 0, 1181, 0
160, 12, 5, 55.37969463392729, 1, 51, 30.0, 0, 0, 1523, 0
160, 12, 6, 55.6115481052879, 1, 48, 27.0, 0, 0, 1633, 0
160, 12, 7, 54.880366100553665, 0, 49, 24.0, 1, 36, 1742, 36
160, 12, 8, 54.91821219756782, 0, 41, 17.0, 1, 15, 1878, 15
160, 12, 9, 55.0070615722963, 0, 42, 20.0, 1, 85, 1860, 85
160, 12, 10, 54.50220903560272, 0, 31, 11.0, 1, 44, 1974, 44
160, 12, 11, 54.36800173622309, 0, 29, 11.0, 1, 179, 2005, 179
160, 13, 3, 53.6685347084471, 10, 43, 28.0, 0, 0, 748, 0
160, 13, 4, 54.60325288450724, 1, 46, 27.0, 0, 0, 1205, 0
160, 13, 5, 51.838725536059314, 1, 46, 26.0, 0, 0, 1620, 0
160, 13, 6, 53.309110097995394, 1, 45, 25.0, 0, 0, 1651, 0
160, 13, 7, 52.0461682848444, 0, 44, 23.0, 1, 30, 1889, 30
160, 13, 8, 52.07094049926388, 0, 35, 14.0, 1, 40, 1920, 40
160, 13, 9, 51.982308722319594, 0, 41, 19.0, 1, 98, 1972, 98
160, 13, 10, 51.68641444353176, 0, 25, 11.0, 1, 30, 2000, 30
160, 13, 11, 51.5145731665715, 0, 20, 7.0, 2, 97, 2059, 105
160, 14, 3, 54.255894827907944, 4, 48, 27.0, 0, 0, 821, 0
160, 14, 4, 55.00403098211653, 0, 52, 31.0, 1, 9, 1352, 9
160, 14, 5, 55.28885632768683, 1, 52, 25.0, 0, 0, 1741, 0
160, 14, 6, 54.47292031483877, 0, 49, 28.0, 1, 16, 1824, 16
160, 14, 7, 54.64796882836703, 0, 38, 20.0, 1, 32, 1887, 32
160, 14, 8, 54.237586727953534, 0, 26, 13.0, 1, 22, 2024, 22
160, 14, 9, 54.38033204256907, 0, 33, 13.0, 1, 66, 2009, 66
160, 14, 10, 54.103402040937105, 0, 28, 9.0, 1, 31, 2107, 31
160, 14, 11, 54.03856456646489, 0, 22, 5.0, 3, 85, 2108, 123
160, 15, 3, 69.39606686543064, 5, 39, 25.0, 0, 0, 925, 0
160, 15, 4, 67.82712274136213, 2, 55, 31.0, 0, 0, 1447, 0
160, 15, 5, 67.69711732508874, 1, 57, 25.0, 0, 0, 1791, 0
160, 15, 6, 67.8773796543507, 0, 49, 25.0, 1, 46, 1898, 46
160, 15, 7, 67.02183860071503, 0, 44, 21.0, 1, 40, 2065, 40
160, 15, 8, 67.36111171850601, 0, 22, 8.0, 1, 6, 2067, 6
160, 15, 9, 67.28820988370133, 0, 39, 14.0, 2, 93, 2060, 94
160, 15, 10, 67.04560655527438, 0, 23, 7.0, 1, 97, 2128, 97
160, 15, 11, 67.14875545375831, 0, 21, 5.0, 2, 115, 2133, 184
160, 16, 3, 40.15217897508758, 4, 46, 26.0, 0, 0, 984, 0
160, 16, 4, 38.85873939546522, 2, 55, 31.0, 0, 0, 1487, 0
160, 16, 5, 40.399918749861236, 1, 53, 22.0, 0, 0, 1780, 0
160, 16, 6, 39.55146140873358, 1, 45, 22.0, 0, 0, 1889, 0
160, 16, 7, 39.86036357497166, 0, 36, 17.0, 1, 17, 2052, 17
160, 16, 8, 39.72504552785815, 1, 24, 9.0, 0, 0, 2121, 0
160, 16, 9, 39.6662201204169, 0, 26, 9.0, 1, 110, 2147, 110
160, 16, 10, 39.66822411728968, 0, 27, 7.0, 1, 126, 2139, 126
160, 16, 11, 39.608598743840886, 0, 13, 3.0, 2, 281, 2146, 374
160, 17, 3, 55.314847018758776, 6, 56, 33.0, 0, 0, 1063, 0
160, 17, 4, 54.83091150192946, 2, 53, 32.0, 0, 0, 1623, 0
160, 17, 5, 54.97121757593866, 0, 45, 21.0, 1, 1, 1884, 1
160, 17, 6, 54.75273732698933, 0, 46, 22.0, 1, 8, 2008, 8
160, 17, 7, 54.58275836595899, 0, 40, 16.0, 1, 103, 2093, 103
160, 17, 8, 54.53468791543072, 0, 15, 6.0, 1, 56, 2131, 56
160, 17, 9, 54.540934366796066, 0, 24, 7.0, 2, 79, 2142, 92
160, 17, 10, 54.49051782142345, 0, 9, 3.0, 2, 187, 2148, 217
160, 17, 11, 54.47329386989848, 0, 10, 2.0, 4, 241, 2144, 439
170, 3, 3, 102.63735630784409, 2, 9, 4.0, 0, 0, 37, 0
170, 3, 4, 101.28864163545983, 5, 17, 9.0, 0, 0, 110, 0
170, 3, 5, 103.59112263303676, 1, 12, 6.0, 0, 0, 70, 0
170, 3, 6, 101.60712875806799, 5, 19, 11.0, 0, 0, 144, 0
170, 3, 7, 101.82250869480853, 4, 18, 10.0, 0, 0, 155, 0
170, 3, 8, 102.65388987944661, 6, 19, 11.0, 0, 0, 167, 0
170, 3, 9, 101.44070057909317, 7, 27, 17.0, 0, 0, 236, 0
170, 3, 10, 102.12050997969202, 9, 22, 14.0, 0, 0, 186, 0
170, 3, 11, 102.47411349955995, 9, 29, 16.0, 0, 0, 293, 0
170, 4, 3, 97.17432452472376, 5, 13, 7.0, 0, 0, 98, 0
170, 4, 4, 96.809083496713, 6, 18, 11.0, 0, 0, 199, 0
170, 4, 5, 99.49481649630944, 6, 17, 10.0, 0, 0, 203, 0
170, 4, 6, 97.8028511286239, 10, 25, 15.0, 0, 0, 279, 0
170, 4, 7, 97.42846306895625, 9, 28, 16.0, 0, 0, 401, 0
170, 4, 8, 97.94584209319245, 10, 29, 19.0, 0, 0, 370, 0
170, 4, 9, 97.56280482448929, 11, 29, 18.0, 0, 0, 509, 0
170, 4, 10, 98.1056886583223, 11, 31, 20.0, 0, 0, 504, 0
170, 4, 11, 97.609789682784, 10, 34, 21.0, 0, 0, 646, 0
170, 5, 3, 92.52305861037716, 6, 17, 10.0, 0, 0, 156, 0
170, 5, 4, 90.24695749070648, 7, 29, 18.0, 0, 0, 344, 0
170, 5, 5, 91.33764772438141, 7, 29, 17.0, 0, 0, 426, 0
170, 5, 6, 92.41484820733078, 6, 31, 16.0, 0, 0, 396, 0
170, 5, 7, 92.16322440357811, 6, 33, 21.0, 0, 0, 650, 0
170, 5, 8, 91.2120580956725, 8, 40, 23.0, 0, 0, 587, 0
170, 5, 9, 91.3432553315087, 7, 43, 26.0, 0, 0, 825, 0
170, 5, 10, 91.56894260253432, 7, 44, 26.0, 0, 0, 824, 0
170, 5, 11, 91.84355211772197, 8, 42, 26.0, 0, 0, 948, 0
170, 6, 3, 90.36818009869987, 9, 21, 13.0, 0, 0, 230, 0
170, 6, 4, 88.81721901834327, 7, 31, 19.0, 0, 0, 480, 0
170, 6, 5, 87.17372038580667, 8, 40, 24.0, 0, 0, 617, 0
170, 6, 6, 89.24662231492717, 7, 38, 23.0, 0, 0, 623, 0
170, 6, 7, 89.4345468677814, 4, 46, 26.0, 0, 0, 844, 0
170, 6, 8, 88.55352872086235, 3, 42, 22.0, 0, 0, 835, 0
170, 6, 9, 88.6537236435019, 4, 36, 23.0, 0, 0, 1005, 0
170, 6, 10, 87.96835751965618, 3, 43, 25.0, 0, 0, 1098, 0
170, 6, 11, 88.17694705338428, 0, 42, 23.0, 1, 18, 1167, 18
170, 7, 3, 84.5269970760246, 4, 25, 15.0, 0, 0, 316, 0
170, 7, 4, 81.779618804951, 7, 37, 23.0, 0, 0, 660, 0
170, 7, 5, 81.92019782897826, 7, 38, 23.0, 0, 0, 859, 0
170, 7, 6, 81.94810972272045, 6, 43, 26.0, 0, 0, 835, 0
170, 7, 7, 81.4113835881302, 3, 48, 29.0, 0, 0, 1046, 0
170, 7, 8, 81.67959334741744, 3, 45, 26.0, 0, 0, 1158, 0
170, 7, 9, 81.19732515777791, 0, 49, 26.0, 1, 1, 1275, 1
170, 7, 10, 81.28081853606483, 3, 39, 21.0, 0, 0, 1364, 0
170, 7, 11, 80.96877807580752, 1, 46, 24.0, 0, 0, 1378, 0
170, 8, 3, 78.97897509059801, 8, 35, 20.0, 0, 0, 384, 0
170, 8, 4, 76.30199556431535, 5, 41, 24.0, 0, 0, 728, 0
170, 8, 5, 75.28893691159206, 2, 47, 28.0, 0, 0, 1016, 0
170, 8, 6, 75.94293648233145, 2, 44, 27.0, 0, 0, 1081, 0
170, 8, 7, 75.86811138416219, 3, 50, 28.0, 0, 0, 1139, 0
170, 8, 8, 75.41010932723303, 0, 46, 26.0, 1, 9, 1371, 9
170, 8, 9, 75.42228843242509, 2, 50, 28.0, 0, 0, 1467, 0
170, 8, 10, 75.05577887712637, 0, 48, 22.0, 1, 11, 1617, 11
170, 8, 11, 75.07514735108738, 0, 48, 23.0, 1, 21, 1651, 21
170, 9, 3, 79.79139204563614, 9, 37, 22.0, 0, 0, 432, 0
170, 9, 4, 79.51382615340039, 2, 44, 25.0, 0, 0, 829, 0
170, 9, 5, 77.1019402138219, 2, 45, 27.0, 0, 0, 1138, 0
170, 9, 6, 77.59905911834258, 3, 53, 31.0, 0, 0, 1232, 0
170, 9, 7, 77.78247571748776, 1, 50, 29.0, 0, 0, 1359, 0
170, 9, 8, 77.26394433301621, 1, 48, 25.0, 0, 0, 1497, 0
170, 9, 9, 77.24112067373008, 0, 47, 26.0, 1, 55, 1512, 55
170, 9, 10, 76.7788063949654, 1, 37, 18.0, 0, 0, 1708, 0
170, 9, 11, 76.3526769989093, 0, 48, 19.0, 1, 21, 1736, 21
170, 10, 3, 66.20763574796015, 8, 44, 28.0, 0, 0, 526, 0
170, 10, 4, 67.00208480808007, 2, 49, 30.0, 0, 0, 950, 0
170, 10, 5, 65.9848798719267, 5, 44, 26.0, 0, 0, 1262, 0
170, 10, 6, 65.77195191421907, 2, 51, 30.0, 0, 0, 1329, 0
170, 10, 7, 65.95882421481564, 2, 49, 28.0, 0, 0, 1461, 0
170, 10, 8, 65.85719553250726, 0, 42, 21.0, 1, 26, 1625, 26
170, 10, 9, 65.70188458672826, 1, 47, 24.0, 0, 0, 1657, 0
170, 10, 10, 65.29746594343412, 0, 44, 17.0, 1, 9, 1838, 9
170, 10, 11, 65.22585327646776, 1, 36, 16.0, 0, 0, 1862, 0
170, 11, 3, 66.28306300453093, 6, 38, 22.0, 0, 0, 551, 0
170, 11, 4, 65.84121272766214, 6, 54, 30.0, 0, 0, 1006, 0
170, 11, 5, 65.7844092465975, 1, 49, 28.0, 0, 0, 1371, 0
170, 11, 6, 65.35530107187022, 5, 62, 34.0, 0, 0, 1533, 0
170, 11, 7, 65.41610477560539, 0, 55, 26.0, 1, 10, 1617, 10
170, 11, 8, 65.17598898439175, 0, 42, 19.0, 1, 8, 1727, 8
170, 11, 9, 65.30853670385925, 0, 45, 23.0, 1, 21, 1769, 21
170, 11, 10, 64.80040889293669, 0, 32, 15.0, 1, 72, 1898, 72
170, 11, 11, 64.63955866455275, 0, 35, 13.0, 1, 41, 1931, 41
170, 12, 3, 61.30420730465674, 8, 49, 29.0, 0, 0, 718, 0
170, 12, 4, 58.00027294824687, 2, 49, 32.0, 0, 0, 1173, 0
170, 12, 5, 59.69784379738087, 0, 45, 23.0, 1, 9, 1429, 9
170, 12, 6, 58.60811185113562, 2, 49, 30.0, 0, 0, 1553, 0
170, 12, 7, 58.3589660180966, 0, 44, 24.0, 1, 69, 1777, 69
170, 12, 8, 58.04326752960753, 0, 45, 17.0, 1, 15, 1878, 15
170, 12, 9, 58.10189559595701, 0, 38, 19.0, 1, 54, 1894, 54
170, 12, 10, 57.810346073464544, 0, 30, 12.0, 1, 27, 1945, 27
170, 12, 11, 57.63590366687913, 0, 24, 10.0, 1, 227, 1987, 227
170, 13, 3, 58.28163753244802, 11, 40, 23.0, 0, 0, 778, 0
170, 13, 4, 55.26930006669264, 1, 59, 32.0, 0, 0, 1271, 0
170, 13, 5, 54.195789193037996, 1, 52, 26.0, 0, 0, 1586, 0
170, 13, 6, 55.04081216849296, 1, 47, 27.0, 0, 0, 1689, 0
170, 13, 7, 54.20161706136599, 0, 47, 22.0, 1, 41, 1839, 41
170, 13, 8, 53.99850547510089, 0, 27, 13.0, 1, 51, 1946, 51
170, 13, 9, 54.043304725411, 0, 37, 18.0, 1, 81, 1912, 81
170, 13, 10, 53.80885585548137, 0, 25, 10.0, 1, 60, 1993, 60
170, 13, 11, 53.63107611684286, 0, 17, 7.0, 1, 111, 2030, 111
170, 14, 3, 52.11795398858165, 4, 48, 28.0, 0, 0, 840, 0
170, 14, 4, 54.722021425665545, 1, 41, 24.0, 0, 0, 1258, 0
170, 14, 5, 51.748435980695284, 1, 52, 27.0, 0, 0, 1706, 0
170, 14, 6, 52.43496560156261, 0, 48, 24.0, 1, 18, 1711, 18
170, 14, 7, 51.7347458107712, 0, 44, 19.0, 1, 45, 1925, 45
170, 14, 8, 51.63638667172276, 0, 23, 10.0, 1, 23, 1978, 23
170, 14, 9, 51.34358026439465, 0, 45, 16.0, 1, 43, 2035, 43
170, 14, 10, 51.3668102279541, 0, 30, 8.0, 1, 84, 2036, 84
170, 14, 11, 51.143124879520876, 0, 17, 4.0, 2, 128, 2070, 140
170, 15, 3, 55.39365685089043, 4, 44, 27.0, 0, 0, 906, 0
170, 15, 4, 55.52310439077481, 0, 53, 29.0, 1, 1, 1489, 1
170, 15, 5, 55.21686615193554, 0, 43, 23.0, 1, 25, 1792, 25
170, 15, 6, 54.95032691649771, 0, 60, 26.0, 1, 1, 1837, 1
170, 15, 7, 54.80283088568262, 0, 40, 18.0, 1, 96, 1934, 96
170, 15, 8, 54.46149627117917, 0, 22, 7.0, 1, 114, 2052, 114
170, 15, 9, 54.651228649285194, 0, 29, 10.0, 1, 93, 2039, 93
170, 15, 10, 54.137668920021596, 0, 20, 7.0, 1, 134, 2116, 134
170, 15, 11, 54.17643219577607, 0, 13, 4.0, 3, 176, 2100, 209
170, 16, 3, 73.58139300577062, 4, 48, 27.0, 0, 0, 1039, 0
170, 16, 4, 72.02225982247994, 1, 68, 34.0, 0, 0, 1547, 0
170, 16, 5, 71.7541808001313, 1, 59, 23.0, 0, 0, 1820, 0
170, 16, 6, 71.92077423360575, 1, 47, 21.0, 0, 0, 1931, 0
170, 16, 7, 71.27097763818522, 0, 40, 17.0, 1, 64, 2032, 64
170, 16, 8, 71.46189051943648, 0, 22, 6.0, 1, 26, 2083, 26
170, 16, 9, 71.50203679241756, 0, 25, 10.0, 1, 110, 2087, 110
170, 16, 10, 71.35246146503071, 0, 20, 6.0, 1, 56, 2122, 56
170, 16, 11, 71.3969000116245, 0, 15, 3.0, 4, 180, 2127, 285
170, 17, 3, 42.69728453048797, 4, 48, 28.0, 0, 0, 1048, 0
170, 17, 4, 41.45773707763939, 1, 57, 27.0, 0, 0, 1544, 0
170, 17, 5, 42.76322021865498, 0, 50, 21.0, 1, 38, 1865, 38
170, 17, 6, 41.99026978594206, 1, 41, 20.0, 0, 0, 1916, 0
170, 17, 7, 42.273140078150824, 0, 31, 13.0, 1, 56, 2056, 56
170, 17, 8, 42.21617132176808, 0, 23, 6.0, 1, 150, 2108, 150
170, 17, 9, 42.15020050546829, 0, 21, 7.0, 3, 106, 2131, 215
170, 17, 10, 42.103310783546355, 0, 16, 4.0, 2, 166, 2129, 217
170, 17, 11, 42.0515922495986, 0, 14, 2.0, 3, 160, 2140, 344
180, 3, 3, 107.63283338797896, 0, 7, 3.0, 1, 0, 29, 92
180, 3, 4, 107.52587969676121, 7, 16, 10.0, 0, 0, 96, 0
180, 3, 5, 109.46382514601305, 3, 16, 7.0, 0, 0, 83, 0
180, 3, 6, 107.56568256652491, 7, 19, 12.0, 0, 0, 121, 0
180, 3, 7, 107.09102564933, 6, 20, 12.0, 0, 0, 165, 0
180, 3, 8, 108.88895453153772, 10, 23, 15.0, 0, 0, 170, 0
180, 3, 9, 107.10712587990201, 8, 27, 15.0, 0, 0, 205, 0
180, 3, 10, 108.20622187795357, 10, 22, 15.0, 0, 0, 190, 0
180, 3, 11, 108.2020756252247, 10, 32, 18.0, 0, 0, 313, 0
180, 4, 3, 104.83758442814465, 6, 18, 10.0, 0, 0, 94, 0
180, 4, 4, 104.08753835671295, 6, 18, 11.0, 0, 0, 181, 0
180, 4, 5, 106.78807951358554, 7, 16, 10.0, 0, 0, 170, 0
180, 4, 6, 104.74166587166212, 9, 24, 16.0, 0, 0, 267, 0
180, 4, 7, 105.62909065213482, 11, 25, 16.0, 0, 0, 317, 0
180, 4, 8, 105.11600557025737, 9, 27, 16.0, 0, 0, 341, 0
180, 4, 9, 104.95932757707074, 14, 30, 19.0, 0, 0, 460, 0
180, 4, 10, 105.22447200217026, 11, 29, 18.0, 0, 0, 427, 0
180, 4, 11, 104.83275005121055, 13, 33, 20.0, 0, 0, 554, 0
180, 5, 3, 98.43715423591334, 6, 19, 11.0, 0, 0, 161, 0
180, 5, 4, 97.74869796966284, 7, 30, 16.0, 0, 0, 307, 0
180, 5, 5, 97.51303989992024, 8, 27, 14.0, 0, 0, 352, 0
180, 5, 6, 99.0322195912663, 5, 28, 18.0, 0, 0, 414, 0
180, 5, 7, 98.52025784774428, 9, 38, 23.0, 0, 0, 630, 0
180, 5, 8, 98.13828107626229, 7, 35, 20.0, 0, 0, 549, 0
180, 5, 9, 98.39909776753963, 5, 36, 21.0, 0, 0, 747, 0
180, 5, 10, 98.03063920959687, 7, 37, 23.0, 0, 0, 780, 0
180, 5, 11, 98.58709545062712, 2, 46, 23.0, 0, 0, 843, 0
180, 6, 3, 97.56474165308023, 7, 23, 15.0, 0, 0, 222, 0
180, 6, 4, 95.9579584890464, 9, 28, 17.0, 0, 0, 446, 0
180, 6, 5, 94.233366428202, 6, 34, 23.0, 0, 0, 566, 0
180, 6, 6, 96.80345444442197, 5, 39, 23.0, 0, 0, 595, 0
180, 6, 7, 97.31527322051565, 7, 40, 23.0, 0, 0, 833, 0
180, 6, 8, 95.89441861143818, 3, 41, 22.0, 0, 0, 800, 0
180, 6, 9, 96.18223039500361, 1, 43, 23.0, 0, 0, 958, 0
180, 6, 10, 95.65341681178614, 1, 47, 24.0, 0, 0, 1045, 0
180, 6, 11, 95.23588020913085, 0, 44, 24.0, 1, 32, 1153, 32
180, 7, 3, 90.5987312042523, 3, 25, 14.0, 0, 0, 271, 0
180, 7, 4, 89.41829444220973, 8, 36, 24.0, 0, 0, 615, 0
180, 7, 5, 89.173866125861, 5, 42, 26.0, 0, 0, 838, 0
180, 7, 6, 89.299000952466, 6, 43, 27.0, 0, 0, 827, 0
180, 7, 7, 88.86320999210591, 2, 54, 33.0, 0, 0, 1015, 0
180, 7, 8, 89.29429353978472, 3, 50, 29.0, 0, 0, 1179, 0
180, 7, 9, 88.8202558458006, 2, 54, 31.0, 0, 0, 1253, 0
180, 7, 10, 89.06327378812924, 2, 50, 24.0, 0, 0, 1330, 0
180, 7, 11, 88.91680951968355, 0, 54, 26.0, 1, 49, 1411, 49
180, 8, 3, 85.44647549188521, 10, 34, 21.0, 0, 0, 365, 0
180, 8, 4, 83.36490494712382, 4, 40, 26.0, 0, 0, 738, 0
180, 8, 5, 83.33495292756288, 5, 44, 28.0, 0, 0, 1006, 0
180, 8, 6, 83.02395348929244, 2, 49, 28.0, 0, 0, 1040, 0
180, 8, 7, 83.30704729470827, 2, 57, 31.0, 0, 0, 1201, 0
180, 8, 8, 82.90464194750972, 3, 47, 26.0, 0, 0, 1324, 0
180, 8, 9, 82.84980077441762, 0, 51, 27.0, 1, 5, 1492, 5
180, 8, 10, 82.78653583944366, 2, 46, 22.0, 0, 0, 1560, 0
180, 8, 11, 82.46889950220245, 1, 49, 24.0, 0, 0, 1682, 0
180, 9, 3, 78.41696245486213, 12, 38, 21.0, 0, 0, 435, 0
180, 9, 4, 77.73445734090043, 8, 50, 29.0, 0, 0, 788, 0
180, 9, 5, 76.90569819929954, 4, 51, 31.0, 0, 0, 1207, 0
180, 9, 6, 76.98733712013187, 6, 49, 30.0, 0, 0, 1232, 0
180, 9, 7, 77.08087422179207, 2, 50, 30.0, 0, 0, 1348, 0
180, 9, 8, 76.71174374426661, 3, 41, 23.0, 0, 0, 1478, 0
180, 9, 9, 76.70391773939961, 0, 53, 25.0, 1, 47, 1553, 47
180, 9, 10, 76.22199636506764, 0, 38, 18.0, 1, 28, 1709, 28
180, 9, 11, 76.25800627930676, 0, 41, 19.0, 1, 63, 1741, 63
180, 10, 3, 73.91145007341852, 12, 41, 23.0, 0, 0, 524, 0
180, 10, 4, 74.89325757436758, 3, 47, 24.0, 0, 0, 931, 0
180, 10, 5, 73.27470305601507, 4, 50, 27.0, 0, 0, 1246, 0
180, 10, 6, 72.78824167036396, 4, 49, 28.0, 0, 0, 1292, 0
180, 10, 7, 73.03460896198308, 0, 48, 26.0, 1, 10, 1442, 10
180, 10, 8, 72.97210794611131, 0, 39, 18.0, 1, 35, 1586, 35
180, 10, 9, 73.1443048554116, 0, 38, 19.0, 1, 2, 1568, 2
180, 10, 10, 72.1136634220778, 0, 33, 15.0, 1, 19, 1759, 19
180, 10, 11, 72.1278594643091, 0, 34, 14.0, 1, 70, 1759, 70
180, 11, 3, 71.7082157703838, 8, 37, 25.0, 0, 0, 624, 0
180, 11, 4, 71.55065395794372, 4, 47, 28.0, 0, 0, 995, 0
180, 11, 5, 71.67967065247146, 2, 52, 27.0, 0, 0, 1310, 0
180, 11, 6, 70.72260662360715, 2, 49, 29.0, 0, 0, 1439, 0
180, 11, 7, 70.54666320873731, 0, 47, 25.0, 1, 42, 1553, 42
180, 11, 8, 70.39525837657452, 0, 33, 17.0, 1, 13, 1712, 13
180, 11, 9, 70.45729509653951, 0, 40, 20.0, 1, 31, 1705, 31
180, 11, 10, 69.87267913273432, 0, 31, 13.0, 1, 53, 1826, 53
180, 11, 11, 69.63553935254934, 0, 32, 11.0, 1, 91, 1893, 91
180, 12, 3, 64.72926192475106, 5, 41, 25.0, 0, 0, 664, 0
180, 12, 4, 63.0092768964437, 2, 45, 29.0, 0, 0, 1157, 0
180, 12, 5, 64.15542379270576, 2, 40, 23.0, 0, 0, 1425, 0
180, 12, 6, 63.2166195610006, 1, 50, 27.0, 0, 0, 1554, 0
180, 12, 7, 63.49862715648686, 0, 46, 22.0, 1, 11, 1731, 11
180, 12, 8, 63.001019993661934, 1, 35, 16.0, 0, 0, 1837, 0
180, 12, 9, 63.04313402383991, 0, 55, 21.0, 1, 22, 1848, 22
180, 12, 10, 62.893244669815275, 0, 28, 11.0, 1, 53, 1914, 53
180, 12, 11, 62.649475303145536, 0, 27, 8.0, 2, 78, 1974, 103
180, 13, 3, 84.46989967805003, 12, 48, 30.0, 0, 0, 773, 0
180, 13, 4, 81.05067951293131, 5, 51, 31.0, 0, 0, 1298, 0
180, 13, 5, 81.79756705763383, 0, 47, 25.0, 1, 16, 1598, 16
180, 13, 6, 81.6335227650597, 2, 47, 27.0, 0, 0, 1656, 0
180, 13, 7, 81.2190882121997, 0, 46, 21.0, 1, 20, 1858, 20
180, 13, 8, 81.12820414527678, 0, 32, 13.0, 1, 5, 1929, 5
180, 13, 9, 81.3156425193402, 0, 46, 19.0, 1, 19, 1931, 19
180, 13, 10, 81.05885755097698, 0, 21, 7.0, 1, 104, 1988, 104
180, 13, 11, 80.95481599714958, 0, 15, 5.0, 1, 131, 2007, 131
180, 14, 3, 87.30571809076915, 10, 45, 28.0, 0, 0, 855, 0
180, 14, 4, 84.18567141059842, 1, 53, 29.0, 0, 0, 1350, 0
180, 14, 5, 84.28281337840784, 2, 55, 26.0, 0, 0, 1697, 0
180, 14, 6, 84.88960958591457, 0, 45, 23.0, 1, 1, 1706, 1
180, 14, 7, 83.77582484517715, 0, 41, 22.0, 1, 21, 1939, 21
180, 14, 8, 83.88622243883437, 0, 31, 10.0, 1, 54, 1968, 54
180, 14, 9, 83.88273756137193, 1, 37, 16.0, 0, 0, 1996, 0
180, 14, 10, 83.85719136081342, 0, 30, 9.0, 1, 94, 2050, 94
180, 14, 11, 83.8084558557898, 0, 16, 5.0, 2, 100, 2055, 118
180, 15, 3, 52.573505331631964, 5, 59, 31.0, 0, 0, 911, 0
180, 15, 4, 55.56744892498494, 1, 40, 23.0, 0, 0, 1353, 0
180, 15, 5, 52.83431751582537, 2, 48, 25.0, 0, 0, 1796, 0
180, 15, 6, 53.05402780053241, 1, 50, 25.0, 0, 0, 1784, 0
180, 15, 7, 52.94838126490602, 0, 43, 18.0, 1, 72, 1980, 72
180, 15, 8, 52.89072948266868, 0, 22, 9.0, 1, 8, 1996, 8
180, 15, 9, 52.48016815360566, 0, 33, 13.0, 1, 91, 2043, 91
180, 15, 10, 52.468749855717945, 0, 27, 7.0, 2, 138, 2083, 155
180, 15, 11, 52.47715788696339, 0, 13, 4.0, 1, 87, 2058, 87
180, 16, 3, 55.90014624481426, 5, 49, 26.0, 0, 0, 931, 0
180, 16, 4, 55.671234901221375, 0, 49, 26.0, 1, 53, 1551, 53
180, 16, 5, 55.317943005608356, 1, 48, 21.0, 0, 0, 1834, 0
180, 16, 6, 55.3321931201848, 0, 42, 21.0, 1, 25, 1841, 25
180, 16, 7, 55.08823792233943, 0, 46, 19.0, 1, 23, 1967, 23
180, 16, 8, 54.690532365758784, 0, 19, 6.0, 1, 139, 2047, 139
180, 16, 9, 54.88738749860612, 0, 23, 8.0, 1, 68, 2031, 68
180, 16, 10, 54.436011441956815, 0, 27, 6.0, 2, 176, 2101, 248
180, 16, 11, 54.4112352763603, 0, 8, 2.0, 3, 303, 2104, 416
180, 17, 3, 78.05718617712601, 2, 51, 26.0, 0, 0, 1084, 0
180, 17, 4, 76.13698489891217, 0, 50, 29.0, 1, 50, 1597, 50
180, 17, 5, 76.20554055194312, 1, 49, 19.0, 0, 0, 1838, 0
180, 17, 6, 76.07622344990538, 0, 43, 17.0, 1, 56, 1953, 56
180, 17, 7, 75.7712610807174, 0, 30, 15.0, 1, 26, 2050, 26
180, 17, 8, 75.77617649335156, 0, 15, 4.0, 3, 120, 2087, 177
180, 17, 9, 75.81711904180817, 0, 26, 7.0, 1, 143, 2071, 143
180, 17, 10, 75.65997734116708, 0, 15, 4.0, 1, 139, 2121, 139
180, 17, 11, 75.65322258697415, 0, 7, 1.0, 2, 590, 2112, 986
190, 3, 3, 112.60903575415612, 0, 6, 2.0, 1, 0, 26, 75
190, 3, 4, 113.61272197030415, 8, 20, 12.0, 0, 0, 93, 0
190, 3, 5, 115.31842888771713, 4, 16, 8.0, 0, 0, 88, 0
190, 3, 6, 113.48471651354716, 9, 23, 14.0, 0, 0, 112, 0
190, 3, 7, 113.08766081689409, 7, 21, 12.0, 0, 0, 168, 0
190, 3, 8, 114.87484175232268, 10, 23, 15.0, 0, 0, 160, 0
190, 3, 9, 113.10601592696064, 6, 27, 16.0, 0, 0, 220, 0
190, 3, 10, 114.31030991233769, 10, 29, 16.0, 0, 0, 199, 0
190, 3, 11, 113.67734794314707, 10, 27, 18.0, 0, 0, 273, 0
190, 4, 3, 112.71984102109934, 4, 11, 6.0, 0, 0, 69, 0
190, 4, 4, 111.31406390897237, 5, 17, 10.0, 0, 0, 183, 0
190, 4, 5, 114.05769008578179, 8, 17, 12.0, 0, 0, 140, 0
190, 4, 6, 112.33407388892566, 9, 19, 13.0, 0, 0, 244, 0
190, 4, 7, 112.77119035877848, 9, 24, 15.0, 0, 0, 271, 0
190, 4, 8, 112.62024883356177, 10, 25, 17.0, 0, 0, 333, 0
190, 4, 9, 112.13392520641429, 8, 24, 15.0, 0, 0, 394, 0
190, 4, 10, 112.80120830586279, 12, 26, 17.0, 0, 0, 385, 0
190, 4, 11, 112.27555244691844, 12, 32, 18.0, 0, 0, 514, 0
190, 5, 3, 106.80356009283588, 9, 20, 12.0, 0, 0, 164, 0
190, 5, 4, 105.83146888269289, 5, 22, 14.0, 0, 0, 286, 0
190, 5, 5, 105.75746438727984, 10, 23, 15.0, 0, 0, 289, 0
190, 5, 6, 107.19513002241627, 4, 32, 19.0, 0, 0, 412, 0
190, 5, 7, 106.2529650759865, 12, 35, 23.0, 0, 0, 568, 0
190, 5, 8, 106.29096956573143, 4, 32, 20.0, 0, 0, 525, 0
190, 5, 9, 106.28205988552361, 6, 37, 22.0, 0, 0, 711, 0
190, 5, 10, 106.30662893003588, 7, 39, 24.0, 0, 0, 717, 0
190, 5, 11, 106.51942284222518, 5, 41, 24.0, 0, 0, 867, 0
190, 6, 3, 104.77119872399733, 11, 22, 15.0, 0, 0, 248, 0
190, 6, 4, 101.84980525438074, 6, 34, 22.0, 0, 0, 426, 0
190, 6, 5, 101.09770575987976, 7, 37, 23.0, 0, 0, 556, 0
190, 6, 6, 104.2390358287483, 6, 38, 22.0, 0, 0, 547, 0
190, 6, 7, 103.8197759733836, 6, 38, 23.0, 0, 0, 780, 0
190, 6, 8, 102.49746983773943, 7, 45, 27.0, 0, 0, 806, 0
190, 6, 9, 102.39666088663438, 3, 50, 26.0, 0, 0, 1006, 0
190, 6, 10, 102.24460951696742, 4, 45, 24.0, 0, 0, 1062, 0
190, 6, 11, 102.13078573325384, 2, 48, 25.0, 0, 0, 1165, 0
190, 7, 3, 97.32824631069818, 8, 26, 15.0, 0, 0, 262, 0
190, 7, 4, 96.66403055352556, 6, 38, 25.0, 0, 0, 623, 0
190, 7, 5, 95.08051373607398, 5, 47, 26.0, 0, 0, 788, 0
190, 7, 6, 95.26773065087137, 4, 42, 25.0, 0, 0, 772, 0
190, 7, 7, 96.04183000453946, 2, 45, 27.0, 0, 0, 1021, 0
190, 7, 8, 96.19707840875566, 4, 43, 26.0, 0, 0, 1054, 0
190, 7, 9, 95.84752339930388, 0, 45, 26.0, 1, 19, 1217, 19
190, 7, 10, 95.5453776229697, 1, 44, 24.0, 0, 0, 1281, 0
190, 7, 11, 95.45421270288203, 1, 51, 27.0, 0, 0, 1411, 0
190, 8, 3, 92.9229963655196, 6, 31, 20.0, 0, 0, 407, 0
190, 8, 4, 92.16000068833377, 8, 44, 28.0, 0, 0, 755, 0
190, 8, 5, 91.91343161793995, 2, 45, 28.0, 0, 0, 997, 0
190, 8, 6, 91.46703014646992, 4, 48, 26.0, 0, 0, 947, 0
190, 8, 7, 91.48417917387344, 3, 56, 30.0, 0, 0, 1170, 0
190, 8, 8, 91.59527339841058, 2, 42, 23.0, 0, 0, 1266, 0
190, 8, 9, 91.26811779710965, 0, 45, 23.0, 1, 11, 1384, 11
190, 8, 10, 91.28919939363898, 0, 41, 21.0, 1, 41, 1496, 41
190, 8, 11, 90.93683565821847, 0, 48, 22.0, 1, 10, 1548, 10
190, 9, 3, 86.54223843807733, 9, 35, 22.0, 0, 0, 461, 0
190, 9, 4, 85.06429950671546, 7, 37, 23.0, 0, 0, 832, 0
190, 9, 5, 83.57078272758703, 3, 51, 28.0, 0, 0, 1188, 0
190, 9, 6, 84.15924645199314, 3, 44, 26.0, 0, 0, 1176, 0
190, 9, 7, 83.72834235309736, 0, 51, 26.0, 1, 19, 1320, 19
190, 9, 8, 83.40526248837337, 1, 44, 21.0, 0, 0, 1471, 0
190, 9, 9, 83.35266371565272, 0, 46, 24.0, 1, 10, 1525, 10
190, 9, 10, 83.17631722692458, 0, 33, 15.0, 1, 25, 1667, 25
190, 9, 11, 83.15379630684589, 0, 30, 15.0, 1, 67, 1664, 67
190, 10, 3, 80.20677793775525, 9, 38, 23.0, 0, 0, 480, 0
190, 10, 4, 80.30452738311793, 4, 59, 32.0, 0, 0, 942, 0
190, 10, 5, 79.52842142254137, 5, 53, 29.0, 0, 0, 1267, 0
190, 10, 6, 78.676175341475, 1, 49, 28.0, 0, 0, 1286, 0
190, 10, 7, 79.2393162491058, 1, 47, 25.0, 0, 0, 1472, 0
190, 10, 8, 78.81920070780211, 0, 42, 18.0, 1, 10, 1618, 10
190, 10, 9, 79.00433027856293, 0, 48, 23.0, 1, 30, 1642, 30
190, 10, 10, 78.39219366776246, 0, 35, 14.0, 1, 43, 1757, 43
190, 10, 11, 78.2708301109926, 0, 37, 13.0, 1, 36, 1759, 36
190, 11, 3, 76.7123230198461, 14, 49, 30.0, 0, 0, 591, 0
190, 11, 4, 76.19667667301461, 2, 50, 30.0, 0, 0, 1034, 0
190, 11, 5, 75.80637331984053, 4, 48, 27.0, 0, 0, 1347, 0
190, 11, 6, 75.38399495611003, 3, 61, 32.0, 0, 0, 1434, 0
190, 11, 7, 74.9934460596462, 0, 53, 28.0, 1, 21, 1611, 21
190, 11, 8, 75.26056569753625, 1, 35, 17.0, 0, 0, 1696, 0
190, 11, 9, 75.36328550918007, 0, 41, 20.0, 1, 17, 1754, 17
190, 11, 10, 74.7338044134611, 0, 25, 11.0, 1, 4, 1873, 4
190, 11, 11, 74.60272832905599, 0, 26, 11.0, 1, 53, 1897, 53
190, 12, 3, 85.6038693216451, 13, 44, 28.0, 0, 0, 709, 0
190, 12, 4, 85.00453851152845, 4, 54, 30.0, 0, 0, 1103, 0
190, 12, 5, 86.21080801565634, 4, 49, 26.0, 0, 0, 1417, 0
190, 12, 6, 84.09595705779951, 2, 57, 29.0, 0, 0, 1567, 0
190, 12, 7, 84.5594661370608, 1, 45, 24.0, 0, 0, 1685, 0
190, 12, 8, 84.86730351507451, 0, 37, 15.0, 1, 7, 1755, 7
190, 12, 9, 84.9147512744121, 0, 35, 18.0, 1, 29, 1795, 29
190, 12, 10, 84.6976967019834, 0, 28, 11.0, 1, 61, 1879, 61
190, 12, 11, 84.22407912421963, 0, 30, 10.0, 1, 79, 1941, 79
190, 13, 3, 78.89737706937062, 4, 41, 27.0, 0, 0, 819, 0
190, 13, 4, 78.62826137915245, 3, 52, 30.0, 0, 0, 1260, 0
190, 13, 5, 78.22174784563988, 1, 45, 25.0, 0, 0, 1515, 0
190, 13, 6, 77.92252591774898, 2, 49, 26.0, 0, 0, 1644, 0
190, 13, 7, 77.57553244693946, 0, 38, 19.0, 1, 54, 1809, 54
190, 13, 8, 77.35883037198779, 0, 28, 13.0, 1, 83, 1850, 83
190, 13, 9, 77.54028714519539, 0, 39, 17.0, 1, 9, 1887, 9
190, 13, 10, 77.1720802726421, 0, 23, 9.0, 1, 14, 1947, 14
190, 13, 11, 77.00836772849465, 0, 20, 6.0, 1, 77, 1983, 77
190, 14, 3, 80.95056039743766, 9, 38, 23.0, 0, 0, 865, 0
190, 14, 4, 75.35648652005268, 1, 55, 30.0, 0, 0, 1395, 0
190, 14, 5, 76.34592498262529, 1, 54, 23.0, 0, 0, 1645, 0
190, 14, 6, 76.24528971583223, 0, 53, 24.0, 1, 38, 1726, 38
190, 14, 7, 75.80098091637555, 0, 37, 17.0, 1, 39, 1826, 39
190, 14, 8, 75.46738533080861, 0, 26, 9.0, 1, 58, 1941, 58
190, 14, 9, 75.63944810206661, 0, 39, 14.0, 1, 57, 1939, 57
190, 14, 10, 75.29321785564207, 0, 19, 6.0, 1, 102, 1997, 102
190, 14, 11, 75.10508956166846, 0, 14, 4.0, 3, 43, 2034, 101
190, 15, 3, 84.71759333141667, 8, 59, 34.0, 0, 0, 931, 0
190, 15, 4, 82.17722872338435, 2, 54, 29.0, 0, 0, 1400, 0
190, 15, 5, 81.68331303733643, 1, 38, 23.0, 0, 0, 1753, 0
190, 15, 6, 82.6522785219975, 0, 40, 22.0, 1, 42, 1755, 42
190, 15, 7, 81.12296272606324, 0, 35, 19.0, 1, 43, 1968, 43
190, 15, 8, 81.288184309747, 0, 22, 8.0, 1, 79, 1992, 79
190, 15, 9, 81.18946068252649, 0, 35, 12.0, 1, 24, 2038, 24
190, 15, 10, 81.10345251682632, 0, 23, 6.0, 1, 42, 2048, 42
190, 15, 11, 81.05129402675654, 0, 11, 3.0, 3, 75, 2061, 124
190, 16, 3, 97.56157110086072, 7, 45, 30.0, 0, 0, 985, 0
190, 16, 4, 96.5787136698788, 0, 43, 23.0, 1, 54, 1416, 54
190, 16, 5, 96.62905227513185, 0, 52, 22.0, 1, 31, 1774, 31
190, 16, 6, 96.68037097933734, 1, 44, 22.0, 0, 0, 1850, 0
190, 16, 7, 96.32118307006586, 0, 32, 15.0, 1, 66, 1966, 66
190, 16, 8, 96.2833700768244, 0, 19, 6.0, 1, 92, 2008, 92
190, 16, 9, 96.29810778506032, 0, 32, 11.0, 1, 1, 2061, 1
190, 16, 10, 96.31793782181701, 0, 17, 4.0, 2, 120, 2078, 202
190, 16, 11, 96.32024095880361, 0, 7, 2.0, 2, 181, 2060, 228
190, 17, 3, 56.80842720545871, 6, 50, 28.0, 0, 0, 1066, 0
190, 17, 4, 56.081377796468765, 0, 45, 25.0, 1, 13, 1575, 13
190, 17, 5, 55.79820577751721, 0, 51, 17.0, 1, 8, 1825, 8
190, 17, 6, 55.812959485237954, 0, 36, 18.0, 1, 3, 1881, 3
190, 17, 7, 55.410157960857, 0, 36, 16.0, 1, 90, 1975, 90
190, 17, 8, 55.10797069622651, 0, 18, 5.0, 2, 62, 2061, 105
190, 17, 9, 55.224783266468485, 0, 21, 7.0, 1, 83, 2065, 83
190, 17, 10, 54.93625135632645, 0, 20, 4.0, 2, 191, 2092, 264
190, 17, 11, 54.8437664853892, 0, 7, 1.0, 3, 520, 2100, 606
200, 3, 3, 119.14588067062137, 0, 4, 2.0, 1, 0, 21, 60
200, 3, 4, 118.95198633897434, 9, 28, 14.0, 0, 0, 100, 0
200, 3, 5, 120.48589829181519, 4, 17, 10.0, 0, 0, 97, 0
200, 3, 6, 118.93461139054124, 10, 26, 15.0, 0, 0, 122, 0
200, 3, 7, 119.78177299344809, 5, 22, 13.0, 0, 0, 154, 0
200, 3, 8, 119.84991543300957, 11, 28, 17.0, 0, 0, 133, 0
200, 3, 9, 119.20683721079399, 9, 26, 16.0, 0, 0, 231, 0
200, 3, 10, 119.5713941833496, 10, 32, 19.0, 0, 0, 210, 0
200, 3, 11, 119.99417339873322, 11, 29, 17.0, 0, 0, 283, 0
200, 4, 3, 120.93450198034682, 3, 14, 8.0, 0, 0, 64, 0
200, 4, 4, 119.25347516437274, 6, 19, 10.0, 0, 0, 176, 0
200, 4, 5, 122.06449131454423, 6, 18, 10.0, 0, 0, 148, 0
200, 4, 6, 120.0355608678376, 7, 25, 13.0, 0, 0, 242, 0
200, 4, 7, 120.47982324014956, 7, 23, 13.0, 0, 0, 269, 0
200, 4, 8, 120.52569586360609, 10, 27, 16.0, 0, 0, 328, 0
200, 4, 9, 119.92359266729146, 12, 27, 17.0, 0, 0, 361, 0
200, 4, 10, 120.7287066396164, 10, 30, 18.0, 0, 0, 381, 0
200, 4, 11, 120.03774346970438, 12, 31, 18.0, 0, 0, 478, 0
200, 5, 3, 115.01443138472762, 10, 21, 13.0, 0, 0, 176, 0
200, 5, 4, 112.61173498155912, 8, 28, 16.0, 0, 0, 267, 0
200, 5, 5, 113.79729056862628, 8, 23, 14.0, 0, 0, 278, 0
200, 5, 6, 114.88424644442605, 6, 30, 19.0, 0, 0, 398, 0
200, 5, 7, 113.71604006536084, 13, 35, 21.0, 0, 0, 552, 0
200, 5, 8, 113.82412314744359, 9, 34, 21.0, 0, 0, 495, 0
200, 5, 9, 113.90054299384023, 7, 42, 25.0, 0, 0, 738, 0
200, 5, 10, 113.92419515922087, 9, 40, 25.0, 0, 0, 694, 0
200, 5, 11, 113.92829087034134, 2, 38, 22.0, 0, 0, 777, 0
200, 6, 3, 110.10410985475197, 12, 20, 13.0, 0, 0, 233, 0
200, 6, 4, 106.4985356591318, 7, 33, 20.0, 0, 0, 381, 0
